# ./jetvheto -in n3lo-fixed-order/H125-LHC13-R04-heft-xmur100-xmuf100-log.fxd -xQ 0.75 -out benchmarks-n3lo-smallR/H125-LHC13-R04-heft-xmur100-xmuf100-xQ075-N3LO+NNLLb.R0-1.0.res -scheme b -order 2 -ptmax 500.01 -fixed_order 3 -small-r -R0 1.0
# process = H    
# collider = pp   
# rts =  13000.000
# M   =    125.000
# muR =    125.000
# muF =    125.000
# Q   =     93.750
# p   =      5.000
# include_c1_squared =   F
# loop_mass  = none
# alphas(MZ) =    0.11800
# alphas(M) =    0.11264
# alphas(muR) =    0.11264
# Rjet =      0.400
# order = NNLL
# pdf name and set = PDF4LHC15_nnlo_mc.LHgrid,    0
# matching scheme = b
# total cross sections [nb] at LO, NLOdiff, NNLOdiff, N3LOdiff =     0.012945    0.016716    0.010146    0.003834
#----------------------------------------------------------------------
# the lines that follow give the jet-veto efficiencies as a function of pt
#         pt            matched eff      resummed eff     fixed-order eff
   2.00000000E+001   4.45833657E-001   5.45876750E-001   4.08842854E-001
   2.50000000E+001   5.31238868E-001   6.30590910E-001   5.02042917E-001
   3.00000000E+001   6.03929316E-001   6.90632251E-001   5.80189507E-001
   3.50000000E+001   6.60899614E-001   7.32861509E-001   6.40535859E-001
   4.00000000E+001   7.07220777E-001   7.62143886E-001   6.89380469E-001
   4.50000000E+001   7.44824106E-001   7.81938183E-001   7.29072921E-001
   5.00000000E+001   7.76649346E-001   7.94725879E-001   7.62718280E-001
   5.50000000E+001   8.03771367E-001   8.02345207E-001   7.91464926E-001
   6.00000000E+001   8.26494643E-001   8.06190903E-001   8.15679320E-001
   6.50000000E+001   8.46790549E-001   8.07346294E-001   8.37307615E-001
   7.00000000E+001   8.63770060E-001   8.06661670E-001   8.55527758E-001
   7.50000000E+001   8.77738439E-001   8.04801636E-001   8.70653294E-001
   8.00000000E+001   8.89980677E-001   8.02277985E-001   8.83928611E-001
   8.50000000E+001   9.01075697E-001   7.99469908E-001   8.95926690E-001
   9.00000000E+001   9.10532530E-001   7.96642963E-001   9.06183068E-001
   9.50000000E+001   9.19234481E-001   7.93967186E-001   9.15566581E-001
   1.00000000E+002   9.26468067E-001   7.91538025E-001   9.23392937E-001
   1.05000000E+002   9.32992975E-001   7.89396662E-001   9.30416744E-001
   1.10000000E+002   9.38921258E-001   7.87548075E-001   9.36761850E-001
   1.15000000E+002   9.44254342E-001   7.85975586E-001   9.42442779E-001
   1.20000000E+002   9.48912069E-001   7.84651270E-001   9.47391165E-001
   1.25000000E+002   9.52945965E-001   7.83543145E-001   9.51667329E-001
   1.30000000E+002   9.57024016E-001   7.82619401E-001   9.55942935E-001
   1.35000000E+002   9.60632088E-001   7.81850676E-001   9.59715852E-001
   1.40000000E+002   9.63642420E-001   7.81211067E-001   9.62864552E-001
   1.45000000E+002   9.66556778E-001   7.80678373E-001   9.65893331E-001
   1.50000000E+002   9.69021414E-001   7.80233922E-001   9.68454154E-001
   1.55000000E+002   9.71690070E-001   7.79862207E-001   9.71201993E-001
   1.60000000E+002   9.73499169E-001   7.79550447E-001   9.73079465E-001
   1.65000000E+002   9.75458466E-001   7.79288158E-001   9.75095505E-001
   1.70000000E+002   9.77187812E-001   7.79066767E-001   9.76872986E-001
   1.75000000E+002   9.78880703E-001   7.78879262E-001   9.78606495E-001
   1.80000000E+002   9.80441598E-001   7.78719913E-001   9.80201996E-001
   1.85000000E+002   9.81848083E-001   7.78584025E-001   9.81638090E-001
   1.90000000E+002   9.82830281E-001   7.78467750E-001   9.82646032E-001
   1.95000000E+002   9.84115133E-001   7.78367923E-001   9.83952600E-001
   2.00000000E+002   9.85215736E-001   7.78281937E-001   9.85072030E-001
   2.05000000E+002   9.86160469E-001   7.78207634E-001   9.86033119E-001
   2.10000000E+002   9.87019182E-001   7.78143227E-001   9.86906031E-001
   2.15000000E+002   9.87969406E-001   7.78087229E-001   9.87868512E-001
   2.20000000E+002   9.88666269E-001   7.78038398E-001   9.88576191E-001
   2.25000000E+002   9.89403893E-001   7.77995697E-001   9.89323232E-001
   2.30000000E+002   9.90097010E-001   7.77958253E-001   9.90024614E-001
   2.35000000E+002   9.90748488E-001   7.77925332E-001   9.90683369E-001
   2.40000000E+002   9.91204058E-001   7.77896312E-001   9.91145412E-001
   2.45000000E+002   9.91801091E-001   7.77870669E-001   9.91748108E-001
