# ./jetvheto -in n3lo-fixed-order/H125-LHC13-R04-heft-xmur050-xmuf025-log.fxd -xQ 0.50 -out benchmarks-n3lo-smallR/H125-LHC13-R04-heft-xmur050-xmuf025-xQ050-N3LO+NNLLb.R0-1.5.res -scheme b -order 2 -ptmax 500.01 -fixed_order 3 -small-r -R0 1.5
# process = H    
# collider = pp   
# rts =  13000.000
# M   =    125.000
# muR =     62.500
# muF =     31.250
# Q   =     62.500
# p   =      5.000
# include_c1_squared =   F
# loop_mass  = none
# alphas(MZ) =    0.11800
# alphas(M) =    0.11264
# alphas(muR) =    0.12516
# Rjet =      0.400
# order = NNLL
# pdf name and set = PDF4LHC15_nnlo_mc.LHgrid,    0
# matching scheme = b
# total cross sections [nb] at LO, NLOdiff, NNLOdiff, N3LOdiff =     0.013759    0.019772    0.009723    0.001827
#----------------------------------------------------------------------
# the lines that follow give the jet-veto efficiencies as a function of pt
#         pt            matched eff      resummed eff     fixed-order eff
   2.00000000E+001   4.48221409E-001   4.89242570E-001   4.27203495E-001
   2.50000000E+001   5.36024883E-001   5.67956564E-001   5.19088129E-001
   3.00000000E+001   6.05482439E-001   6.24215761E-001   5.91367989E-001
   3.50000000E+001   6.61187683E-001   6.63930909E-001   6.49393365E-001
   4.00000000E+001   7.06959100E-001   6.91508405E-001   6.97284430E-001
   4.50000000E+001   7.45386132E-001   7.10207973E-001   7.37595273E-001
   5.00000000E+001   7.77211571E-001   7.22529126E-001   7.71023045E-001
   5.50000000E+001   8.05076029E-001   7.30418734E-001   8.00251087E-001
   6.00000000E+001   8.28211347E-001   7.35352401E-001   8.24469559E-001
   6.50000000E+001   8.46727598E-001   7.38393099E-001   8.43832463E-001
   7.00000000E+001   8.64143882E-001   7.40261544E-001   8.61923051E-001
   7.50000000E+001   8.79080046E-001   7.41419219E-001   8.77374981E-001
   8.00000000E+001   8.91524657E-001   7.42149144E-001   8.90207252E-001
   8.50000000E+001   9.03025008E-001   7.42620109E-001   9.02003239E-001
   9.00000000E+001   9.13100172E-001   7.42931921E-001   9.12302062E-001
   9.50000000E+001   9.20645371E-001   7.43143833E-001   9.20015465E-001
   1.00000000E+002   9.28943137E-001   7.43291504E-001   9.28443885E-001
   1.05000000E+002   9.35311582E-001   7.43396817E-001   9.34911773E-001
   1.10000000E+002   9.41876792E-001   7.43473508E-001   9.41554741E-001
   1.15000000E+002   9.47489175E-001   7.43530409E-001   9.47227616E-001
   1.20000000E+002   9.51920821E-001   7.43573335E-001   9.51706631E-001
   1.25000000E+002   9.55751113E-001   7.43606200E-001   9.55574531E-001
   1.30000000E+002   9.59729836E-001   7.43631696E-001   9.59583425E-001
   1.35000000E+002   9.63036959E-001   7.43651709E-001   9.62914740E-001
   1.40000000E+002   9.66118448E-001   7.43667586E-001   9.66015872E-001
   1.45000000E+002   9.68964109E-001   7.43680304E-001   9.68877534E-001
   1.50000000E+002   9.71388153E-001   7.43690580E-001   9.71314695E-001
   1.55000000E+002   9.73627052E-001   7.43698949E-001   9.73564421E-001
   1.60000000E+002   9.75980129E-001   7.43705816E-001   9.75926506E-001
   1.65000000E+002   9.77733195E-001   7.43711489E-001   9.77687045E-001
   1.70000000E+002   9.79199576E-001   7.43716204E-001   9.79159686E-001
   1.75000000E+002   9.80976281E-001   7.43720146E-001   9.80941692E-001
   1.80000000E+002   9.82186731E-001   7.43723459E-001   9.82156602E-001
   1.85000000E+002   9.83560943E-001   7.43726259E-001   9.83534622E-001
   1.90000000E+002   9.84664821E-001   7.43728636E-001   9.84641738E-001
   1.95000000E+002   9.85843645E-001   7.43730663E-001   9.85823341E-001
   2.00000000E+002   9.86695891E-001   7.43732399E-001   9.86677971E-001
   2.05000000E+002   9.87549602E-001   7.43733892E-001   9.87533739E-001
   2.10000000E+002   9.88337194E-001   7.43735180E-001   9.88323112E-001
   2.15000000E+002   9.89223797E-001   7.43736296E-001   9.89211268E-001
   2.20000000E+002   9.89865422E-001   7.43737266E-001   9.89854241E-001
   2.25000000E+002   9.90603620E-001   7.43738112E-001   9.90593619E-001
   2.30000000E+002   9.91151564E-001   7.43738852E-001   9.91142597E-001
   2.35000000E+002   9.91580012E-001   7.43739501E-001   9.91571952E-001
   2.40000000E+002   9.92168239E-001   7.43740072E-001   9.92160980E-001
   2.45000000E+002   9.92673753E-001   7.43740576E-001   9.92667202E-001
