# ./jetvheto -in n3lo-fixed-order/H125-LHC13-R04-mb-475-mt-1725-xmur050-xmuf050-log.fxd -xQ 0.125 -out benchmarks-n3lo-smallR/H125-LHC13-R04-mb-475-mt-1725-xmur050-xmuf050-xQ125-NNLO+NNLLb.R0-1.5.res -scheme b -order 2 -ptmax 500.01 -fixed_order 2 -small-r -loop-mass t+b -R0 1.5
# process = H    
# collider = pp   
# rts =  13000.000
# M   =    125.000
# muR =     62.500
# muF =     62.500
# Q   =     15.625
# p   =      5.000
# include_c1_squared =   F
# loop_mass  = t+b 
# alphas(MZ) =    0.11800
# alphas(M) =    0.11264
# alphas(muR) =    0.12516
# Rjet =      0.400
# order = NNLL
# pdf name and set = PDF4LHC15_nnlo_mc.LHgrid,    0
# matching scheme = b
# total cross sections [nb] at LO, NLOdiff, NNLOdiff, N3LOdiff =     0.014147    0.020254    0.008998    0.001413
#----------------------------------------------------------------------
# the lines that follow give the jet-veto efficiencies as a function of pt
#         pt            matched eff      resummed eff     fixed-order eff
   2.00000000E+001   3.18399642E-001   4.21865208E-001   3.08135668E-001
   2.50000000E+001   4.20017795E-001   4.35674590E-001   4.16958718E-001
   3.00000000E+001   5.03503057E-001   4.40174715E-001   5.02459671E-001
   3.50000000E+001   5.71597061E-001   4.41861013E-001   5.71196452E-001
   4.00000000E+001   6.27529468E-001   4.42578513E-001   6.27360842E-001
   4.50000000E+001   6.74371158E-001   4.42916910E-001   6.74295094E-001
   5.00000000E+001   7.13852457E-001   4.43090222E-001   7.13816378E-001
   5.50000000E+001   7.47325120E-001   4.43185108E-001   7.47307378E-001
   6.00000000E+001   7.76021237E-001   4.43239986E-001   7.76012324E-001
   6.50000000E+001   8.00756235E-001   4.43273211E-001   8.00751743E-001
   7.00000000E+001   8.22344214E-001   4.43294121E-001   8.22342000E-001
   7.50000000E+001   8.41025272E-001   4.43307726E-001   8.41024239E-001
   8.00000000E+001   8.57482178E-001   4.43316837E-001   8.57481768E-001
   8.50000000E+001   8.72028294E-001   4.43323092E-001   8.72028209E-001
   9.00000000E+001   8.84788386E-001   4.43327484E-001   8.84788465E-001
   9.50000000E+001   8.96029922E-001   4.43330629E-001   8.96030076E-001
   1.00000000E+002   9.06087911E-001   4.43332922E-001   9.06088095E-001
   1.05000000E+002   9.15022686E-001   4.43334619E-001   9.15022873E-001
   1.10000000E+002   9.22967399E-001   4.43335894E-001   9.22967578E-001
   1.15000000E+002   9.30123360E-001   4.43336864E-001   9.30123525E-001
   1.20000000E+002   9.36525046E-001   4.43337611E-001   9.36525194E-001
   1.25000000E+002   9.42341847E-001   4.43338193E-001   9.42341979E-001
   1.30000000E+002   9.47512561E-001   4.43338651E-001   9.47512677E-001
   1.35000000E+002   9.52192605E-001   4.43339014E-001   9.52192707E-001
   1.40000000E+002   9.56453430E-001   4.43339304E-001   9.56453519E-001
   1.45000000E+002   9.60291176E-001   4.43339539E-001   9.60291255E-001
   1.50000000E+002   9.63805895E-001   4.43339730E-001   9.63805964E-001
   1.55000000E+002   9.66986756E-001   4.43339886E-001   9.66986816E-001
   1.60000000E+002   9.69872323E-001   4.43340015E-001   9.69872376E-001
   1.65000000E+002   9.72479872E-001   4.43340121E-001   9.72479918E-001
   1.70000000E+002   9.74856883E-001   4.43340210E-001   9.74856924E-001
   1.75000000E+002   9.77058154E-001   4.43340285E-001   9.77058190E-001
   1.80000000E+002   9.79026078E-001   4.43340347E-001   9.79026110E-001
   1.85000000E+002   9.80854990E-001   4.43340401E-001   9.80855018E-001
   1.90000000E+002   9.82521057E-001   4.43340446E-001   9.82521082E-001
   1.95000000E+002   9.84037743E-001   4.43340484E-001   9.84037765E-001
   2.00000000E+002   9.85420696E-001   4.43340517E-001   9.85420716E-001
   2.05000000E+002   9.86697203E-001   4.43340546E-001   9.86697220E-001
   2.10000000E+002   9.87836806E-001   4.43340570E-001   9.87836822E-001
   2.15000000E+002   9.88919532E-001   4.43340592E-001   9.88919546E-001
   2.20000000E+002   9.89913063E-001   4.43340610E-001   9.89913075E-001
   2.25000000E+002   9.90786645E-001   4.43340626E-001   9.90786656E-001
   2.30000000E+002   9.91640349E-001   4.43340641E-001   9.91640359E-001
   2.35000000E+002   9.92384738E-001   4.43340653E-001   9.92384747E-001
   2.40000000E+002   9.93082561E-001   4.43340664E-001   9.93082569E-001
   2.45000000E+002   9.93711864E-001   4.43340674E-001   9.93711871E-001
