# ./jetvheto -in n3lo-fixed-order/H125-LHC13-R04-heft-xmur050-xmuf025-log.fxd -xQ 0.50 -out benchmarks-n3lo-smallR/H125-LHC13-R04-heft-xmur050-xmuf025-xQ050-N3LO+NNLLb.res -scheme b -order 2 -ptmax 500.01 -fixed_order 3
# process = H    
# collider = pp   
# rts =  13000.000
# M   =    125.000
# muR =     62.500
# muF =     31.250
# Q   =     62.500
# p   =      5.000
# include_c1_squared =   F
# loop_mass  = none
# alphas(MZ) =    0.11800
# alphas(M) =    0.11264
# alphas(muR) =    0.12516
# Rjet =      0.400
# order = NNLL
# pdf name and set = PDF4LHC15_nnlo_mc.LHgrid,    0
# matching scheme = b
# total cross sections [nb] at LO, NLOdiff, NNLOdiff, N3LOdiff =     0.013759    0.019772    0.009723    0.001827
#----------------------------------------------------------------------
# the lines that follow give the jet-veto efficiencies as a function of pt
#         pt            matched eff      resummed eff     fixed-order eff
   2.00000000E+001   4.38516816E-001   4.77303155E-001   4.27203495E-001
   2.50000000E+001   5.28745151E-001   5.58994106E-001   5.19088129E-001
   3.00000000E+001   6.00124470E-001   6.17602016E-001   5.91367989E-001
   3.50000000E+001   6.57290125E-001   6.59106038E-001   6.49393365E-001
   4.00000000E+001   7.04145463E-001   6.88020620E-001   6.97284430E-001
   4.50000000E+001   7.43364612E-001   7.07705074E-001   7.37595273E-001
   5.00000000E+001   7.75764070E-001   7.20741516E-001   7.71023045E-001
   5.50000000E+001   8.04036815E-001   7.29143710E-001   8.00251087E-001
   6.00000000E+001   8.27462669E-001   7.34440721E-001   8.24469559E-001
   6.50000000E+001   8.46185140E-001   7.37737236E-001   8.43832463E-001
   7.00000000E+001   8.63745745E-001   7.39785460E-001   8.61923051E-001
   7.50000000E+001   8.78784536E-001   7.41069830E-001   8.77374981E-001
   8.00000000E+001   8.91302845E-001   7.41889630E-001   8.90207252E-001
   8.50000000E+001   9.02856301E-001   7.42424942E-001   9.02003239E-001
   9.00000000E+001   9.12970343E-001   7.42783323E-001   9.12302062E-001
   9.50000000E+001   9.20544536E-001   7.43029334E-001   9.20015465E-001
   1.00000000E+002   9.28863770E-001   7.43202270E-001   9.28443885E-001
   1.05000000E+002   9.35248586E-001   7.43326523E-001   9.34911773E-001
   1.10000000E+002   9.41826249E-001   7.43417574E-001   9.41554741E-001
   1.15000000E+002   9.47448287E-001   7.43485482E-001   9.47227616E-001
   1.20000000E+002   9.51887504E-001   7.43536932E-001   9.51706631E-001
   1.25000000E+002   9.55723762E-001   7.43576462E-001   9.55574531E-001
   1.30000000E+002   9.59707204E-001   7.43607216E-001   9.59583425E-001
   1.35000000E+002   9.63018114E-001   7.43631415E-001   9.62914740E-001
   1.40000000E+002   9.66102657E-001   7.43650650E-001   9.66015872E-001
   1.45000000E+002   9.68950798E-001   7.43666083E-001   9.68877534E-001
   1.50000000E+002   9.71376874E-001   7.43678568E-001   9.71314695E-001
   1.55000000E+002   9.73617445E-001   7.43688749E-001   9.73564421E-001
   1.60000000E+002   9.75971902E-001   7.43697110E-001   9.75926506E-001
   1.65000000E+002   9.77726122E-001   7.43704021E-001   9.77687045E-001
   1.70000000E+002   9.79193470E-001   7.43709769E-001   9.79159686E-001
   1.75000000E+002   9.80970985E-001   7.43714578E-001   9.80941692E-001
   1.80000000E+002   9.82182122E-001   7.43718622E-001   9.82156602E-001
   1.85000000E+002   9.83556916E-001   7.43722041E-001   9.83534622E-001
   1.90000000E+002   9.84661291E-001   7.43724944E-001   9.84641738E-001
   1.95000000E+002   9.85840539E-001   7.43727420E-001   9.85823341E-001
   2.00000000E+002   9.86693151E-001   7.43729541E-001   9.86677971E-001
   2.05000000E+002   9.87547177E-001   7.43731366E-001   9.87533739E-001
   2.10000000E+002   9.88335042E-001   7.43732941E-001   9.88323112E-001
   2.15000000E+002   9.89221881E-001   7.43734305E-001   9.89211268E-001
   2.20000000E+002   9.89863713E-001   7.43735491E-001   9.89854241E-001
   2.25000000E+002   9.90602091E-001   7.43736525E-001   9.90593619E-001
   2.30000000E+002   9.91150193E-001   7.43737430E-001   9.91142597E-001
   2.35000000E+002   9.91578780E-001   7.43738224E-001   9.91571952E-001
   2.40000000E+002   9.92167129E-001   7.43738923E-001   9.92160980E-001
   2.45000000E+002   9.92672752E-001   7.43739539E-001   9.92667202E-001
