# ./jetvheto -in n3lo-fixed-order/H125-LHC13-R04-mb-0-mt-1725-xmur025-xmuf025-log.fxd -xQ 0.25 -out benchmarks-n3lo-smallR/H125-LHC13-R04-mb-0-mt-1725-xmur025-xmuf025-xQ025-NNLO+NNLLb.R0-2.0.res -scheme b -order 2 -ptmax 500.01 -small-r -fixed_order 2 -loop-mass t -R0 2.0
# process = H    
# collider = pp   
# rts =  13000.000
# M   =    125.000
# muR =     31.250
# muF =     31.250
# Q   =     31.250
# p   =      5.000
# include_c1_squared =   F
# loop_mass  = t   
# alphas(MZ) =    0.11800
# alphas(M) =    0.11264
# alphas(muR) =    0.14091
# Rjet =      0.400
# order = NNLL
# pdf name and set = PDF4LHC15_nnlo_mc.LHgrid,    0
# matching scheme = b
# total cross sections [nb] at LO, NLOdiff, NNLOdiff, N3LOdiff =     0.018140    0.025356    0.006043   -0.002471
#----------------------------------------------------------------------
# the lines that follow give the jet-veto efficiencies as a function of pt
#         pt            matched eff      resummed eff     fixed-order eff
   2.00000000E+001   3.98155869E-001   4.49101671E-001   3.51600386E-001
   2.50000000E+001   4.80312499E-001   5.10458024E-001   4.53985492E-001
   3.00000000E+001   5.49746459E-001   5.46935617E-001   5.35336815E-001
   3.50000000E+001   6.09300503E-001   5.66942411E-001   6.01450914E-001
   4.00000000E+001   6.60078758E-001   5.77503636E-001   6.55707630E-001
   4.50000000E+001   7.03330014E-001   5.83101344E-001   7.00809251E-001
   5.00000000E+001   7.40267251E-001   5.86155569E-001   7.38750758E-001
   5.50000000E+001   7.71808466E-001   5.87887738E-001   7.70859819E-001
   6.00000000E+001   7.98970087E-001   5.88910161E-001   7.98354652E-001
   6.50000000E+001   8.22457564E-001   5.89536796E-001   8.22044881E-001
   7.00000000E+001   8.42882442E-001   5.89934191E-001   8.42597642E-001
   7.50000000E+001   8.60450253E-001   5.90194011E-001   8.60248412E-001
   8.00000000E+001   8.76026982E-001   5.90368553E-001   8.75880788E-001
   8.50000000E+001   8.89607628E-001   5.90488671E-001   8.89499593E-001
   9.00000000E+001   9.01609328E-001   5.90573133E-001   9.01528041E-001
   9.50000000E+001   9.12074885E-001   5.90633679E-001   9.12012715E-001
   1.00000000E+002   9.21426068E-001   5.90677841E-001   9.21377846E-001
   1.05000000E+002   9.29762035E-001   5.90710559E-001   9.29724151E-001
   1.10000000E+002   9.37127005E-001   5.90735147E-001   9.37096897E-001
   1.15000000E+002   9.43772103E-001   5.90753865E-001   9.43747922E-001
   1.20000000E+002   9.49688091E-001   5.90768283E-001   9.49668478E-001
   1.25000000E+002   9.54883851E-001   5.90779512E-001   9.54867796E-001
   1.30000000E+002   9.59616365E-001   5.90788343E-001   9.59603121E-001
   1.35000000E+002   9.63862858E-001   5.90795354E-001   9.63851855E-001
   1.40000000E+002   9.67680726E-001   5.90800968E-001   9.67671517E-001
   1.45000000E+002   9.71170268E-001   5.90805498E-001   9.71162513E-001
   1.50000000E+002   9.74262643E-001   5.90809181E-001   9.74256073E-001
   1.55000000E+002   9.77058044E-001   5.90812196E-001   9.77052447E-001
   1.60000000E+002   9.79612331E-001   5.90814680E-001   9.79607538E-001
   1.65000000E+002   9.81927813E-001   5.90816740E-001   9.81923690E-001
   1.70000000E+002   9.83981148E-001   5.90818457E-001   9.83977585E-001
   1.75000000E+002   9.85858948E-001   5.90819896E-001   9.85855855E-001
   1.80000000E+002   9.87560845E-001   5.90821108E-001   9.87558150E-001
   1.85000000E+002   9.89079955E-001   5.90822134E-001   9.89077597E-001
   1.90000000E+002   9.90489201E-001   5.90823007E-001   9.90487132E-001
   1.95000000E+002   9.91782158E-001   5.90823752E-001   9.91780336E-001
   2.00000000E+002   9.92924647E-001   5.90824390E-001   9.92923037E-001
   2.05000000E+002   9.93989744E-001   5.90824940E-001   9.93988317E-001
   2.10000000E+002   9.94968055E-001   5.90825415E-001   9.94966787E-001
   2.15000000E+002   9.95796861E-001   5.90825826E-001   9.95795730E-001
   2.20000000E+002   9.96586556E-001   5.90826184E-001   9.96585546E-001
   2.25000000E+002   9.97314265E-001   5.90826497E-001   9.97313360E-001
   2.30000000E+002   9.97944575E-001   5.90826770E-001   9.97943763E-001
   2.35000000E+002   9.98517966E-001   5.90827010E-001   9.98517235E-001
   2.40000000E+002   9.99026978E-001   5.90827221E-001   9.99026319E-001
   2.45000000E+002   9.99503547E-001   5.90827407E-001   9.99502951E-001
