# ./jetvheto -in n3lo-fixed-order/H125-LHC13-R04-mb-475-mt-1725-xmur100-xmuf050-log.fxd -xQ 0.25 -out benchmarks-n3lo-smallR/H125-LHC13-R04-mb-475-mt-1725-xmur100-xmuf050-xQ025-NNLO+NNLLb.R0-1.0.res -scheme b -order 2 -ptmax 500.01 -fixed_order 2 -small-r -loop-mass t+b -R0 1.0
# process = H    
# collider = pp   
# rts =  13000.000
# M   =    125.000
# muR =    125.000
# muF =     62.500
# Q   =     31.250
# p   =      5.000
# include_c1_squared =   F
# loop_mass  = t+b 
# alphas(MZ) =    0.11800
# alphas(M) =    0.11264
# alphas(muR) =    0.11264
# Rjet =      0.400
# order = NNLL
# pdf name and set = PDF4LHC15_nnlo_mc.LHgrid,    0
# matching scheme = b
# total cross sections [nb] at LO, NLOdiff, NNLOdiff, N3LOdiff =     0.011575    0.016866    0.010424    0.004163
#----------------------------------------------------------------------
# the lines that follow give the jet-veto efficiencies as a function of pt
#         pt            matched eff      resummed eff     fixed-order eff
   2.00000000E+001   3.58881226E-001   5.09817578E-001   3.01797175E-001
   2.50000000E+001   4.41477624E-001   5.81234634E-001   4.12444386E-001
   3.00000000E+001   5.12740565E-001   6.23543485E-001   4.98409551E-001
   3.50000000E+001   5.74203628E-001   6.46687747E-001   5.67166648E-001
   4.00000000E+001   6.26697078E-001   6.58884490E-001   6.23168191E-001
   4.50000000E+001   6.71767838E-001   6.65342106E-001   6.69933084E-001
   5.00000000E+001   7.10272225E-001   6.68863340E-001   7.09277749E-001
   5.50000000E+001   7.43194397E-001   6.70859659E-001   7.42632321E-001
   6.00000000E+001   7.71588672E-001   6.72037751E-001   7.71258431E-001
   6.50000000E+001   7.96148042E-001   6.72759702E-001   7.95947126E-001
   7.00000000E+001   8.17637489E-001   6.73217507E-001   8.17511462E-001
   7.50000000E+001   8.36308625E-001   6.73516808E-001   8.36227208E-001
   8.00000000E+001   8.52787762E-001   6.73717866E-001   8.52733853E-001
   8.50000000E+001   8.67391837E-001   6.73856229E-001   8.67355329E-001
   9.00000000E+001   8.80213417E-001   6.73953518E-001   8.80188173E-001
   9.50000000E+001   8.91560885E-001   6.74023259E-001   8.91543074E-001
   1.00000000E+002   9.01724643E-001   6.74074126E-001   9.01711868E-001
   1.05000000E+002   9.10797677E-001   6.74111813E-001   9.10788355E-001
   1.10000000E+002   9.18865761E-001   6.74140134E-001   9.18858861E-001
   1.15000000E+002   9.26160050E-001   6.74161693E-001   9.26154870E-001
   1.20000000E+002   9.32695350E-001   6.74178301E-001   9.32691413E-001
   1.25000000E+002   9.38646874E-001   6.74191235E-001   9.38643846E-001
   1.30000000E+002   9.43961873E-001   6.74201407E-001   9.43959515E-001
   1.35000000E+002   9.48771179E-001   6.74209482E-001   9.48769326E-001
   1.40000000E+002   9.53165164E-001   6.74215948E-001   9.53163692E-001
   1.45000000E+002   9.57138883E-001   6.74221166E-001   9.57137703E-001
   1.50000000E+002   9.60778984E-001   6.74225408E-001   9.60778030E-001
   1.55000000E+002   9.64085302E-001   6.74228881E-001   9.64084524E-001
   1.60000000E+002   9.67091377E-001   6.74231743E-001   9.67090738E-001
   1.65000000E+002   9.69818798E-001   6.74234115E-001   9.69818268E-001
   1.70000000E+002   9.72303547E-001   6.74236092E-001   9.72303105E-001
   1.75000000E+002   9.74607310E-001   6.74237750E-001   9.74606939E-001
   1.80000000E+002   9.76680912E-001   6.74239146E-001   9.76680599E-001
   1.85000000E+002   9.78610803E-001   6.74240328E-001   9.78610537E-001
   1.90000000E+002   9.80369168E-001   6.74241333E-001   9.80368941E-001
   1.95000000E+002   9.81978433E-001   6.74242191E-001   9.81978238E-001
   2.00000000E+002   9.83449320E-001   6.74242926E-001   9.83449152E-001
   2.05000000E+002   9.84806679E-001   6.74243560E-001   9.84806533E-001
   2.10000000E+002   9.86027621E-001   6.74244107E-001   9.86027493E-001
   2.15000000E+002   9.87184498E-001   6.74244581E-001   9.87184387E-001
   2.20000000E+002   9.88248568E-001   6.74244993E-001   9.88248471E-001
   2.25000000E+002   9.89196043E-001   6.74245353E-001   9.89195956E-001
   2.30000000E+002   9.90107417E-001   6.74245668E-001   9.90107340E-001
   2.35000000E+002   9.90914352E-001   6.74245944E-001   9.90914285E-001
   2.40000000E+002   9.91671088E-001   6.74246187E-001   9.91671028E-001
   2.45000000E+002   9.92353664E-001   6.74246402E-001   9.92353610E-001
