# ./jetvheto -in n3lo-fixed-order/H125-LHC13-R04-heft-xmur200-xmuf100-log.fxd -xQ 0.50 -out benchmarks-n3lo-smallR/H125-LHC13-R04-heft-xmur200-xmuf100-xQ050-N3LO+NNLLb.R0-1.0.res -scheme b -order 2 -ptmax 500.01 -fixed_order 3 -small-r -R0 1.0
# process = H    
# collider = pp   
# rts =  13000.000
# M   =    125.000
# muR =    250.000
# muF =    125.000
# Q   =     62.500
# p   =      5.000
# include_c1_squared =   F
# loop_mass  = none
# alphas(MZ) =    0.11800
# alphas(M) =    0.11264
# alphas(muR) =    0.10244
# Rjet =      0.400
# order = NNLL
# pdf name and set = PDF4LHC15_nnlo_mc.LHgrid,    0
# matching scheme = b
# total cross sections [nb] at LO, NLOdiff, NNLOdiff, N3LOdiff =     0.010706    0.014429    0.010526    0.005600
#----------------------------------------------------------------------
# the lines that follow give the jet-veto efficiencies as a function of pt
#         pt            matched eff      resummed eff     fixed-order eff
   2.00000000E+001   4.33088127E-001   5.25168658E-001   4.02811325E-001
   2.50000000E+001   5.18202383E-001   6.10344522E-001   4.98234417E-001
   3.00000000E+001   5.89593047E-001   6.71274547E-001   5.75984208E-001
   3.50000000E+001   6.46431950E-001   7.14340420E-001   6.36394382E-001
   4.00000000E+001   6.93006224E-001   7.44246527E-001   6.85307948E-001
   4.50000000E+001   7.31210789E-001   7.64525399E-001   7.25186623E-001
   5.00000000E+001   7.63567782E-001   7.77894089E-001   7.58844562E-001
   5.50000000E+001   7.91178393E-001   7.86457819E-001   7.87489463E-001
   6.00000000E+001   8.14598949E-001   7.91814438E-001   8.11729972E-001
   6.50000000E+001   8.35367477E-001   7.95117246E-001   8.33150152E-001
   7.00000000E+001   8.53030457E-001   7.97148065E-001   8.51319682E-001
   7.50000000E+001   8.67964919E-001   7.98407409E-001   8.66643586E-001
   8.00000000E+001   8.81106408E-001   7.99202071E-001   8.80083273E-001
   8.50000000E+001   8.92907630E-001   7.99715162E-001   8.92112042E-001
   9.00000000E+001   9.03145909E-001   8.00055081E-001   9.02523134E-001
   9.50000000E+001   9.12427669E-001   8.00286226E-001   9.11936899E-001
   1.00000000E+002   9.20340756E-001   8.00447379E-001   9.19950993E-001
   1.05000000E+002   9.27443899E-001   8.00562354E-001   9.27131992E-001
   1.10000000E+002   9.33840813E-001   8.00646111E-001   9.33589347E-001
   1.15000000E+002   9.39591613E-001   8.00708273E-001   9.39387347E-001
   1.20000000E+002   9.44652057E-001   8.00755179E-001   9.44484945E-001
   1.25000000E+002   9.49090313E-001   8.00791097E-001   9.48952647E-001
   1.30000000E+002   9.53387477E-001   8.00818967E-001   9.53273348E-001
   1.35000000E+002   9.57220539E-001   8.00840846E-001   9.57125326E-001
   1.40000000E+002   9.60495560E-001   8.00858206E-001   9.60415664E-001
   1.45000000E+002   9.63607336E-001   8.00872113E-001   9.63539914E-001
   1.50000000E+002   9.66288217E-001   8.00883350E-001   9.66231026E-001
   1.55000000E+002   9.69025897E-001   8.00892503E-001   9.68977149E-001
   1.60000000E+002   9.71094355E-001   8.00900013E-001   9.71052595E-001
   1.65000000E+002   9.73189113E-001   8.00906217E-001   9.73153186E-001
   1.70000000E+002   9.75068147E-001   8.00911374E-001   9.75037105E-001
   1.75000000E+002   9.76856204E-001   8.00915686E-001   9.76829278E-001
   1.80000000E+002   9.78508052E-001   8.00919310E-001   9.78484606E-001
   1.85000000E+002   9.80000959E-001   8.00922373E-001   9.79980470E-001
   1.90000000E+002   9.81159328E-001   8.00924973E-001   9.81141359E-001
   1.95000000E+002   9.82497452E-001   8.00927190E-001   9.82481642E-001
   2.00000000E+002   9.83669898E-001   8.00929089E-001   9.83655946E-001
   2.05000000E+002   9.84704376E-001   8.00930722E-001   9.84692025E-001
   2.10000000E+002   9.85648030E-001   8.00932131E-001   9.85637066E-001
   2.15000000E+002   9.86625829E-001   8.00933352E-001   9.86616070E-001
   2.20000000E+002   9.87408252E-001   8.00934413E-001   9.87399543E-001
   2.25000000E+002   9.88196258E-001   8.00935339E-001   9.88188467E-001
   2.30000000E+002   9.88934987E-001   8.00936148E-001   9.88927999E-001
   2.35000000E+002   9.89631930E-001   8.00936858E-001   9.89625649E-001
   2.40000000E+002   9.90170318E-001   8.00937483E-001   9.90164659E-001
   2.45000000E+002   9.90794210E-001   8.00938034E-001   9.90789102E-001
