# ./jetvheto -in n3lo-fixed-order/H125-LHC13-R04-heft-xmur050-xmuf025-log.fxd -xQ 0.50 -out benchmarks-n3lo-smallR/H125-LHC13-R04-heft-xmur050-xmuf025-xQ050-N3LO+NNLLa.R0-0.5.res -scheme a -order 2 -ptmax 500.01 -fixed_order 3 -small-r -R0 0.5
# process = H    
# collider = pp   
# rts =  13000.000
# M   =    125.000
# muR =     62.500
# muF =     31.250
# Q   =     62.500
# p   =      5.000
# include_c1_squared =   F
# loop_mass  = none
# alphas(MZ) =    0.11800
# alphas(M) =    0.11264
# alphas(muR) =    0.12516
# Rjet =      0.400
# order = NNLL
# pdf name and set = PDF4LHC15_nnlo_mc.LHgrid,    0
# matching scheme = a
# total cross sections [nb] at LO, NLOdiff, NNLOdiff, N3LOdiff =     0.013759    0.019772    0.009723    0.001827
#----------------------------------------------------------------------
# the lines that follow give the jet-veto efficiencies as a function of pt
#         pt            matched eff      resummed eff     fixed-order eff
   2.00000000E+001   4.45797353E-001   4.77589215E-001   4.50421662E-001
   2.50000000E+001   5.36935132E-001   5.59212049E-001   5.38581774E-001
   3.00000000E+001   6.08747709E-001   6.17764443E-001   6.07931788E-001
   3.50000000E+001   6.65988054E-001   6.59225349E-001   6.63605119E-001
   4.00000000E+001   7.12638123E-001   6.88107288E-001   7.09554932E-001
   4.50000000E+001   7.51442521E-001   7.07767482E-001   7.48231785E-001
   5.00000000E+001   7.83323878E-001   7.20786196E-001   7.80304570E-001
   5.50000000E+001   8.10976347E-001   7.29175631E-001   8.08347860E-001
   6.00000000E+001   8.33793909E-001   7.34463571E-001   8.31584643E-001
   6.50000000E+001   8.51976874E-001   7.37753687E-001   8.50162676E-001
   7.00000000E+001   8.68966857E-001   7.39797408E-001   8.67519966E-001
   7.50000000E+001   8.83487785E-001   7.41078601E-001   8.82345556E-001
   8.00000000E+001   8.95559254E-001   7.41896147E-001   8.94657674E-001
   8.50000000E+001   9.06685232E-001   7.42429843E-001   9.05975513E-001
   9.00000000E+001   9.16417423E-001   7.42787055E-001   9.15856876E-001
   9.50000000E+001   9.23704369E-001   7.43032210E-001   9.23257619E-001
   1.00000000E+002   9.31700574E-001   7.43204512E-001   9.31344395E-001
   1.05000000E+002   9.37836948E-001   7.43328289E-001   9.37550109E-001
   1.10000000E+002   9.44155689E-001   7.43418979E-001   9.43923805E-001
   1.15000000E+002   9.49555647E-001   7.43486611E-001   9.49366732E-001
   1.20000000E+002   9.53819361E-001   7.43537846E-001   9.53664191E-001
   1.25000000E+002   9.57503553E-001   7.43577209E-001   9.57375307E-001
   1.30000000E+002   9.61328216E-001   7.43607831E-001   9.61221701E-001
   1.35000000E+002   9.64507045E-001   7.43631925E-001   9.64417982E-001
   1.40000000E+002   9.67468253E-001   7.43651076E-001   9.67393410E-001
   1.45000000E+002   9.70202311E-001   7.43666440E-001   9.70139075E-001
   1.50000000E+002   9.72531153E-001   7.43678870E-001   9.72477447E-001
   1.55000000E+002   9.74681808E-001   7.43689005E-001   9.74635981E-001
   1.60000000E+002   9.76941572E-001   7.43697328E-001   9.76902319E-001
   1.65000000E+002   9.78625302E-001   7.43704208E-001   9.78591495E-001
   1.70000000E+002   9.80033684E-001   7.43709931E-001   9.80004443E-001
   1.75000000E+002   9.81739577E-001   7.43714718E-001   9.81714216E-001
   1.80000000E+002   9.82901983E-001   7.43718744E-001   9.82879880E-001
   1.85000000E+002   9.84221356E-001   7.43722147E-001   9.84202042E-001
   1.90000000E+002   9.85281225E-001   7.43725037E-001   9.85264281E-001
   1.95000000E+002   9.86412894E-001   7.43727502E-001   9.86397989E-001
   2.00000000E+002   9.87231136E-001   7.43729613E-001   9.87217976E-001
   2.05000000E+002   9.88050707E-001   7.43731429E-001   9.88039056E-001
   2.10000000E+002   9.88806777E-001   7.43732997E-001   9.88796432E-001
   2.15000000E+002   9.89657791E-001   7.43734355E-001   9.89648586E-001
   2.20000000E+002   9.90273713E-001   7.43735536E-001   9.90265497E-001
   2.25000000E+002   9.90982253E-001   7.43736565E-001   9.90974904E-001
   2.30000000E+002   9.91508220E-001   7.43737466E-001   9.91501630E-001
   2.35000000E+002   9.91919506E-001   7.43738256E-001   9.91913580E-001
   2.40000000E+002   9.92484069E-001   7.43738952E-001   9.92478733E-001
   2.45000000E+002   9.92969251E-001   7.43739565E-001   9.92964436E-001
