# ./jetvheto -in n3lo-fixed-order/H125-LHC13-R04-heft-xmur100-xmuf100-log.fxd -xQ 0.75 -out benchmarks-n3lo-smallR/H125-LHC13-R04-heft-xmur100-xmuf100-xQ075-NNLO+NNLLb.R0-1.5.res -scheme b -order 2 -ptmax 500.01 -fixed_order 2 -small-r -R0 1.5
# process = H    
# collider = pp   
# rts =  13000.000
# M   =    125.000
# muR =    125.000
# muF =    125.000
# Q   =     93.750
# p   =      5.000
# include_c1_squared =   F
# loop_mass  = none
# alphas(MZ) =    0.11800
# alphas(M) =    0.11264
# alphas(muR) =    0.11264
# Rjet =      0.400
# order = NNLL
# pdf name and set = PDF4LHC15_nnlo_mc.LHgrid,    0
# matching scheme = b
# total cross sections [nb] at LO, NLOdiff, NNLOdiff, N3LOdiff =     0.012945    0.016716    0.010146    0.003834
#----------------------------------------------------------------------
# the lines that follow give the jet-veto efficiencies as a function of pt
#         pt            matched eff      resummed eff     fixed-order eff
   2.00000000E+001   4.38607102E-001   5.55273531E-001   3.33152974E-001
   2.50000000E+001   5.22030350E-001   6.38136983E-001   4.42354030E-001
   3.00000000E+001   5.89537345E-001   6.96645874E-001   5.26280770E-001
   3.50000000E+001   6.44594496E-001   7.37643801E-001   5.92590428E-001
   4.00000000E+001   6.90182302E-001   7.65945305E-001   6.46413459E-001
   4.50000000E+001   7.28042982E-001   7.84959359E-001   6.90650611E-001
   5.00000000E+001   7.59850831E-001   7.97125915E-001   7.27636368E-001
   5.50000000E+001   7.86672039E-001   8.04250382E-001   7.58824117E-001
   6.00000000E+001   8.09584001E-001   8.07701854E-001   7.85509225E-001
   6.50000000E+001   8.29267887E-001   8.08543561E-001   8.08501674E-001
   7.00000000E+001   8.46147499E-001   8.07609875E-001   8.28308351E-001
   7.50000000E+001   8.60856947E-001   8.05552641E-001   8.45602652E-001
   8.00000000E+001   8.73722365E-001   8.02873318E-001   8.60742611E-001
   8.50000000E+001   8.84973365E-001   7.99942679E-001   8.73982907E-001
   9.00000000E+001   8.95034833E-001   7.97019430E-001   8.85762882E-001
   9.50000000E+001   9.03926274E-001   7.94268047E-001   8.96129047E-001
   1.00000000E+002   9.11892324E-001   7.91779513E-001   9.05347624E-001
   1.05000000E+002   9.19063825E-001   7.89591454E-001   9.13574722E-001
   1.10000000E+002   9.25493453E-001   7.87706045E-001   9.20889329E-001
   1.15000000E+002   9.31362457E-001   7.86104417E-001   9.27495781E-001
   1.20000000E+002   9.36660499E-001   7.84756943E-001   9.33407561E-001
   1.25000000E+002   9.41483127E-001   7.83630326E-001   9.38739831E-001
   1.30000000E+002   9.45864242E-001   7.82691738E-001   9.43544289E-001
   1.35000000E+002   9.49890283E-001   7.81911033E-001   9.47922026E-001
   1.40000000E+002   9.53508448E-001   7.81261702E-001   9.51833307E-001
   1.45000000E+002   9.56888875E-001   7.80721075E-001   9.55457933E-001
   1.50000000E+002   9.59912863E-001   7.80270117E-001   9.58686494E-001
   1.55000000E+002   9.62705353E-001   7.79893035E-001   9.61650523E-001
   1.60000000E+002   9.65290683E-001   7.79576824E-001   9.64380158E-001
   1.65000000E+002   9.67641894E-001   7.79310828E-001   9.66853279E-001
   1.70000000E+002   9.69831921E-001   7.79086333E-001   9.69146535E-001
   1.75000000E+002   9.71815930E-001   7.78896216E-001   9.71218357E-001
   1.80000000E+002   9.73668760E-001   7.78734660E-001   9.73146048E-001
   1.85000000E+002   9.75357051E-001   7.78596900E-001   9.74898433E-001
   1.90000000E+002   9.76922586E-001   7.78479029E-001   9.76518987E-001
   1.95000000E+002   9.78397614E-001   7.78377838E-001   9.78041382E-001
   2.00000000E+002   9.79748290E-001   7.78290679E-001   9.79433004E-001
   2.05000000E+002   9.81006403E-001   7.78215366E-001   9.80726600E-001
   2.10000000E+002   9.82161853E-001   7.78150085E-001   9.81912904E-001
   2.15000000E+002   9.83219289E-001   7.78093328E-001   9.82997248E-001
   2.20000000E+002   9.84217413E-001   7.78043838E-001   9.84018885E-001
   2.25000000E+002   9.85139959E-001   7.78000560E-001   9.84962045E-001
   2.30000000E+002   9.86002347E-001   7.77962612E-001   9.85842551E-001
   2.35000000E+002   9.86824845E-001   7.77929247E-001   9.86681004E-001
   2.40000000E+002   9.87569079E-001   7.77899837E-001   9.87439341E-001
   2.45000000E+002   9.88273399E-001   7.77873849E-001   9.88156143E-001
