# ./jetvheto -in n3lo-fixed-order/H125-LHC13-R04-mb-475-mt-1725-xmur050-xmuf050-log.fxd -xQ 0.75 -out benchmarks-n3lo-smallR/H125-LHC13-R04-mb-475-mt-1725-xmur050-xmuf050-xQ075-NNLO+NNLLa.R0-1.5.res -scheme a -order 2 -ptmax 500.01 -fixed_order 2 -small-r -loop-mass t+b -R0 1.5
# process = H    
# collider = pp   
# rts =  13000.000
# M   =    125.000
# muR =     62.500
# muF =     62.500
# Q   =     93.750
# p   =      5.000
# include_c1_squared =   F
# loop_mass  = t+b 
# alphas(MZ) =    0.11800
# alphas(M) =    0.11264
# alphas(muR) =    0.12516
# Rjet =      0.400
# order = NNLL
# pdf name and set = PDF4LHC15_nnlo_mc.LHgrid,    0
# matching scheme = a
# total cross sections [nb] at LO, NLOdiff, NNLOdiff, N3LOdiff =     0.014147    0.020254    0.008998    0.001413
#----------------------------------------------------------------------
# the lines that follow give the jet-veto efficiencies as a function of pt
#         pt            matched eff      resummed eff     fixed-order eff
   2.00000000E+001   5.04870945E-001   5.39168398E-001   4.51585809E-001
   2.50000000E+001   5.90254242E-001   6.11565884E-001   5.37845647E-001
   3.00000000E+001   6.57267433E-001   6.61859521E-001   6.05618957E-001
   3.50000000E+001   7.10445453E-001   6.96504573E-001   6.60103954E-001
   4.00000000E+001   7.52896651E-001   7.19912269E-001   7.04623301E-001
   4.50000000E+001   7.87374230E-001   7.35165459E-001   7.41826274E-001
   5.00000000E+001   8.15439376E-001   7.44464864E-001   7.73153273E-001
   5.50000000E+001   8.38364639E-001   7.49431498E-001   7.99700298E-001
   6.00000000E+001   8.57302933E-001   7.51278237E-001   8.22453602E-001
   6.50000000E+001   8.73047528E-001   7.50942298E-001   8.42063586E-001
   7.00000000E+001   8.86381485E-001   7.49158205E-001   8.59177351E-001
   7.50000000E+001   8.97591645E-001   7.46499478E-001   8.73986041E-001
   8.00000000E+001   9.07309172E-001   7.43405305E-001   8.87031290E-001
   8.50000000E+001   9.15833734E-001   7.40196768E-001   8.98561694E-001
   9.00000000E+001   9.23286655E-001   7.37093062E-001   9.08676257E-001
   9.50000000E+001   9.29882324E-001   7.34227856E-001   9.17587048E-001
   1.00000000E+002   9.35873018E-001   7.31670097E-001   9.25559652E-001
   1.05000000E+002   9.41276812E-001   7.29441867E-001   9.32641906E-001
   1.10000000E+002   9.46165658E-001   7.27534714E-001   9.38939368E-001
   1.15000000E+002   9.50663667E-001   7.25922652E-001   9.44611611E-001
   1.20000000E+002   9.54762725E-001   7.24571529E-001   9.49685968E-001
   1.25000000E+002   9.58565490E-001   7.23445089E-001   9.54296709E-001
   1.30000000E+002   9.61994501E-001   7.22508751E-001   9.58395322E-001
   1.35000000E+002   9.65149451E-001   7.21731313E-001   9.62105002E-001
   1.40000000E+002   9.68066564E-001   7.21085623E-001   9.65482383E-001
   1.45000000E+002   9.70725712E-001   7.20548643E-001   9.68524408E-001
   1.50000000E+002   9.73192504E-001   7.20101143E-001   9.71310382E-001
   1.55000000E+002   9.75446822E-001   7.19727236E-001   9.73831721E-001
   1.60000000E+002   9.77510001E-001   7.19413883E-001   9.76118993E-001
   1.65000000E+002   9.79388166E-001   7.19150426E-001   9.78185892E-001
   1.70000000E+002   9.81112861E-001   7.18928169E-001   9.80070053E-001
   1.75000000E+002   9.82722535E-001   7.18740015E-001   9.81814911E-001
   1.80000000E+002   9.84167338E-001   7.18580174E-001   9.83374805E-001
   1.85000000E+002   9.85518795E-001   7.18443912E-001   9.84824510E-001
   1.90000000E+002   9.86755232E-001   7.18327347E-001   9.86145135E-001
   1.95000000E+002   9.87885063E-001   7.18227296E-001   9.87347351E-001
   2.00000000E+002   9.88918839E-001   7.18141132E-001   9.88443563E-001
   2.05000000E+002   9.89876660E-001   7.18066689E-001   9.89455399E-001
   2.10000000E+002   9.90733082E-001   7.18002170E-001   9.90358717E-001
   2.15000000E+002   9.91550513E-001   7.17946081E-001   9.91216951E-001
   2.20000000E+002   9.92302423E-001   7.17897177E-001   9.92004483E-001
   2.25000000E+002   9.92963677E-001   7.17854416E-001   9.92696938E-001
   2.30000000E+002   9.93613008E-001   7.17816922E-001   9.93373635E-001
   2.35000000E+002   9.94178957E-001   7.17783960E-001   9.93963683E-001
   2.40000000E+002   9.94710836E-001   7.17754906E-001   9.94516819E-001
   2.45000000E+002   9.95190857E-001   7.17729233E-001   9.95015643E-001
