# ./jetvheto -in n3lo-fixed-order/H125-LHC13-R04-mb-0-mt-1725-xmur050-xmuf050-log.fxd -xQ 0.5 -out benchmarks-n3lo-smallR/H125-LHC13-R04-mb-0-mt-1725-xmur050-xmuf050-xQ050-NNLO+NNLLb.R0-1.5.res -scheme b -order 2 -ptmax 500.01 -small-r -fixed_order 2 -loop-mass t -R0 1.5
# process = H    
# collider = pp   
# rts =  13000.000
# M   =    125.000
# muR =     62.500
# muF =     62.500
# Q   =     62.500
# p   =      5.000
# include_c1_squared =   F
# loop_mass  = t   
# alphas(MZ) =    0.11800
# alphas(M) =    0.11264
# alphas(muR) =    0.12516
# Rjet =      0.400
# order = NNLL
# pdf name and set = PDF4LHC15_nnlo_mc.LHgrid,    0
# matching scheme = b
# total cross sections [nb] at LO, NLOdiff, NNLOdiff, N3LOdiff =     0.015885    0.020561    0.008998    0.001413
#----------------------------------------------------------------------
# the lines that follow give the jet-veto efficiencies as a function of pt
#         pt            matched eff      resummed eff     fixed-order eff
   2.00000000E+001   4.36483694E-001   5.09783002E-001   3.37968833E-001
   2.50000000E+001   5.18042055E-001   5.86070370E-001   4.45490403E-001
   3.00000000E+001   5.83667665E-001   6.39816125E-001   5.29094091E-001
   3.50000000E+001   6.37381086E-001   6.77229573E-001   5.95850260E-001
   4.00000000E+001   6.81837769E-001   7.02787365E-001   6.50115846E-001
   4.50000000E+001   7.19134661E-001   7.19775757E-001   6.94939270E-001
   5.00000000E+001   7.51159660E-001   7.30698347E-001   7.32769177E-001
   5.50000000E+001   7.78273194E-001   7.37480257E-001   7.64361916E-001
   6.00000000E+001   8.01966475E-001   7.41562395E-001   7.91465371E-001
   6.50000000E+001   8.22764017E-001   7.43962943E-001   8.14838120E-001
   7.00000000E+001   8.41074131E-001   7.45357749E-001   8.35078651E-001
   7.50000000E+001   8.57127665E-001   7.46168176E-001   8.52570605E-001
   8.00000000E+001   8.71423936E-001   7.46644112E-001   8.67937405E-001
   8.50000000E+001   8.84166497E-001   7.46928854E-001   8.81478135E-001
   9.00000000E+001   8.95502233E-001   7.47103479E-001   8.93411828E-001
   9.50000000E+001   9.05507781E-001   7.47213608E-001   9.03868009E-001
   1.00000000E+002   9.14563774E-001   7.47285110E-001   9.13265993E-001
   1.05000000E+002   9.22525248E-001   7.47332887E-001   9.21489390E-001
   1.10000000E+002   9.29681509E-001   7.47365700E-001   9.28847842E-001
   1.15000000E+002   9.36127637E-001   7.47388821E-001   9.35451292E-001
   1.20000000E+002   9.41946367E-001   7.47405496E-001   9.41393487E-001
   1.25000000E+002   9.47245679E-001   7.47417779E-001   9.46790455E-001
   1.30000000E+002   9.51933655E-001   7.47427000E-001   9.51556334E-001
   1.35000000E+002   9.56176761E-001   7.47434038E-001   9.55862035E-001
   1.40000000E+002   9.60052819E-001   7.47439491E-001   9.59788706E-001
   1.45000000E+002   9.63579869E-001   7.47443773E-001   9.63356960E-001
   1.50000000E+002   9.66812876E-001   7.47447176E-001   9.66623739E-001
   1.55000000E+002   9.69720760E-001   7.47449908E-001   9.69559478E-001
   1.60000000E+002   9.72366336E-001   7.47452123E-001   9.72228153E-001
   1.65000000E+002   9.74758132E-001   7.47453934E-001   9.74639208E-001
   1.70000000E+002   9.76959864E-001   7.47455426E-001   9.76857081E-001
   1.75000000E+002   9.78958844E-001   7.47456665E-001   9.78869658E-001
   1.80000000E+002   9.80760147E-001   7.47457700E-001   9.80682463E-001
   1.85000000E+002   9.82429641E-001   7.47458570E-001   9.82361728E-001
   1.90000000E+002   9.83956403E-001   7.47459305E-001   9.83896830E-001
   1.95000000E+002   9.85349402E-001   7.47459930E-001   9.85296972E-001
   2.00000000E+002   9.86624644E-001   7.47460463E-001   9.86578358E-001
   2.05000000E+002   9.87793652E-001   7.47460920E-001   9.87752669E-001
   2.10000000E+002   9.88840839E-001   7.47461313E-001   9.88804449E-001
   2.15000000E+002   9.89832328E-001   7.47461653E-001   9.89799927E-001
   2.20000000E+002   9.90738363E-001   7.47461948E-001   9.90709441E-001
   2.25000000E+002   9.91542928E-001   7.47462205E-001   9.91517046E-001
   2.30000000E+002   9.92333717E-001   7.47462430E-001   9.92310501E-001
   2.35000000E+002   9.93013757E-001   7.47462626E-001   9.92992886E-001
   2.40000000E+002   9.93657008E-001   7.47462799E-001   9.93638203E-001
   2.45000000E+002   9.94245345E-001   7.47462951E-001   9.94228366E-001
