# ./jetvheto -in n3lo-fixed-order/H125-LHC13-R04-heft-xmur100-xmuf200-log.fxd -xQ 0.50 -out benchmarks-n3lo-smallR/H125-LHC13-R04-heft-xmur100-xmuf200-xQ050-N3LO+NNLLa.R0-1.0.res -scheme a -order 2 -ptmax 500.01 -fixed_order 3 -small-r -R0 1.0
# process = H    
# collider = pp   
# rts =  13000.000
# M   =    125.000
# muR =    125.000
# muF =    250.000
# Q   =     62.500
# p   =      5.000
# include_c1_squared =   F
# loop_mass  = none
# alphas(MZ) =    0.11800
# alphas(M) =    0.11264
# alphas(muR) =    0.11264
# Rjet =      0.400
# order = NNLL
# pdf name and set = PDF4LHC15_nnlo_mc.LHgrid,    0
# matching scheme = a
# total cross sections [nb] at LO, NLOdiff, NNLOdiff, N3LOdiff =     0.013467    0.016878    0.009991    0.003297
#----------------------------------------------------------------------
# the lines that follow give the jet-veto efficiencies as a function of pt
#         pt            matched eff      resummed eff     fixed-order eff
   2.00000000E+001   4.60516958E-001   5.31486516E-001   4.53320057E-001
   2.50000000E+001   5.48585963E-001   6.11883754E-001   5.42970984E-001
   3.00000000E+001   6.16838948E-001   6.68259232E-001   6.11308774E-001
   3.50000000E+001   6.72781013E-001   7.07285429E-001   6.67398638E-001
   4.00000000E+001   7.18164603E-001   7.33761039E-001   7.13032843E-001
   4.50000000E+001   7.54287766E-001   7.51217252E-001   7.49551591E-001
   5.00000000E+001   7.86320668E-001   7.62329458E-001   7.82184597E-001
   5.50000000E+001   8.11832888E-001   7.69140625E-001   8.08329054E-001
   6.00000000E+001   8.33559788E-001   7.73170169E-001   8.30683668E-001
   6.50000000E+001   8.51822566E-001   7.75487380E-001   8.49512183E-001
   7.00000000E+001   8.68752902E-001   7.76795881E-001   8.66921638E-001
   7.50000000E+001   8.82456106E-001   7.77529449E-001   8.81016191E-001
   8.00000000E+001   8.94379136E-001   7.77941814E-001   8.93249479E-001
   8.50000000E+001   9.05116675E-001   7.78176108E-001   9.04229308E-001
   9.00000000E+001   9.14203728E-001   7.78311443E-001   9.13504110E-001
   9.50000000E+001   9.22943220E-001   7.78391205E-001   9.22388341E-001
   1.00000000E+002   9.30161407E-001   7.78439288E-001   9.29718901E-001
   1.05000000E+002   9.36469475E-001   7.78468996E-001   9.36114161E-001
   1.10000000E+002   9.41888571E-001   7.78487808E-001   9.41601357E-001
   1.15000000E+002   9.47153863E-001   7.78500019E-001   9.46919982E-001
   1.20000000E+002   9.51973367E-001   7.78508139E-001   9.51781598E-001
   1.25000000E+002   9.55832800E-001   7.78513666E-001   9.55674634E-001
   1.30000000E+002   9.59614772E-001   7.78517514E-001   9.59483452E-001
   1.35000000E+002   9.62780541E-001   7.78520250E-001   9.62670874E-001
   1.40000000E+002   9.66107318E-001   7.78522235E-001   9.66015171E-001
   1.45000000E+002   9.68600135E-001   7.78523702E-001   9.68522336E-001
   1.50000000E+002   9.71137420E-001   7.78524806E-001   9.71071374E-001
   1.55000000E+002   9.73385652E-001   7.78525649E-001   9.73329317E-001
   1.60000000E+002   9.75317480E-001   7.78526303E-001   9.75269207E-001
   1.65000000E+002   9.76952195E-001   7.78526817E-001   9.76910654E-001
   1.70000000E+002   9.78821668E-001   7.78527225E-001   9.78785757E-001
   1.75000000E+002   9.80283110E-001   7.78527554E-001   9.80251953E-001
   1.80000000E+002   9.81970122E-001   7.78527822E-001   9.81942976E-001
   1.85000000E+002   9.83061958E-001   7.78528041E-001   9.83038234E-001
   1.90000000E+002   9.84248781E-001   7.78528222E-001   9.84227973E-001
   1.95000000E+002   9.85287265E-001   7.78528374E-001   9.85268956E-001
   2.00000000E+002   9.86515121E-001   7.78528501E-001   9.86498957E-001
   2.05000000E+002   9.87266260E-001   7.78528608E-001   9.87251953E-001
   2.10000000E+002   9.87997522E-001   7.78528699E-001   9.87984821E-001
   2.15000000E+002   9.88848018E-001   7.78528777E-001   9.88836711E-001
   2.20000000E+002   9.89640209E-001   7.78528844E-001   9.89630117E-001
   2.25000000E+002   9.90221319E-001   7.78528902E-001   9.90212291E-001
   2.30000000E+002   9.90787343E-001   7.78528952E-001   9.90779246E-001
   2.35000000E+002   9.91402305E-001   7.78528995E-001   9.91395027E-001
   2.40000000E+002   9.91943877E-001   7.78529033E-001   9.91937321E-001
   2.45000000E+002   9.92468686E-001   7.78529066E-001   9.92462767E-001
