# ./jetvheto -in n3lo-fixed-order/H125-LHC13-R04-heft-xmur200-xmuf200-log.fxd -xQ 0.50 -out benchmarks-n3lo-smallR/H125-LHC13-R04-heft-xmur200-xmuf200-xQ050-NNLO+NNLLb.R0-1.0.res -scheme b -order 2 -ptmax 500.01 -fixed_order 2 -small-r -R0 1.0
# process = H    
# collider = pp   
# rts =  13000.000
# M   =    125.000
# muR =    250.000
# muF =    250.000
# Q   =     62.500
# p   =      5.000
# include_c1_squared =   F
# loop_mass  = none
# alphas(MZ) =    0.11800
# alphas(M) =    0.11264
# alphas(muR) =    0.10244
# Rjet =      0.400
# order = NNLL
# pdf name and set = PDF4LHC15_nnlo_mc.LHgrid,    0
# matching scheme = b
# total cross sections [nb] at LO, NLOdiff, NNLOdiff, N3LOdiff =     0.011138    0.014625    0.010464    0.005358
#----------------------------------------------------------------------
# the lines that follow give the jet-veto efficiencies as a function of pt
#         pt            matched eff      resummed eff     fixed-order eff
   2.00000000E+001   4.29140329E-001   5.40582346E-001   3.60942428E-001
   2.50000000E+001   5.13192250E-001   6.24276083E-001   4.67866112E-001
   3.00000000E+001   5.81001967E-001   6.83480179E-001   5.49013785E-001
   3.50000000E+001   6.36305838E-001   7.24848638E-001   6.12756753E-001
   4.00000000E+001   6.81876038E-001   7.53214162E-001   6.64071100E-001
   4.50000000E+001   7.20057157E-001   7.72159205E-001   7.06413256E-001
   5.00000000E+001   7.52047006E-001   7.84416440E-001   7.41539074E-001
   5.50000000E+001   7.79346560E-001   7.92088033E-001   7.71262535E-001
   6.00000000E+001   8.02692913E-001   7.96751213E-001   7.96490466E-001
   6.50000000E+001   8.22867492E-001   7.99528039E-001   8.18120881E-001
   7.00000000E+001   8.40537731E-001   8.01166960E-001   8.36906804E-001
   7.50000000E+001   8.55973837E-001   8.02137384E-001   8.53190631E-001
   8.00000000E+001   8.69664696E-001   8.02719906E-001   8.67522112E-001
   8.50000000E+001   8.81700308E-001   8.03077166E-001   8.80041029E-001
   9.00000000E+001   8.92455146E-001   8.03302112E-001   8.91160980E-001
   9.50000000E+001   9.01984893E-001   8.03447823E-001   9.00967665E-001
   1.00000000E+002   9.10405510E-001   8.03544957E-001   9.09599568E-001
   1.05000000E+002   9.18039526E-001   8.03611542E-001   9.17395765E-001
   1.10000000E+002   9.24881677E-001   8.03658377E-001   9.24363367E-001
   1.15000000E+002   9.31003879E-001   8.03692103E-001   9.30583365E-001
   1.20000000E+002   9.36526885E-001   8.03716904E-001   9.36183194E-001
   1.25000000E+002   9.41483778E-001   8.03735489E-001   9.41200899E-001
   1.30000000E+002   9.45969040E-001   8.03749648E-001   9.45734656E-001
   1.35000000E+002   9.50086096E-001   8.03760596E-001   9.49890660E-001
   1.40000000E+002   9.53801612E-001   8.03769172E-001   9.53637677E-001
   1.45000000E+002   9.57168567E-001   8.03775970E-001   9.57030282E-001
   1.50000000E+002   9.60239297E-001   8.03781414E-001   9.60122026E-001
   1.55000000E+002   9.63042922E-001   8.03785816E-001   9.62942968E-001
   1.60000000E+002   9.65635619E-001   8.03789406E-001   9.65550019E-001
   1.65000000E+002   9.67993761E-001   8.03792355E-001   9.67920125E-001
   1.70000000E+002   9.70149261E-001   8.03794796E-001   9.70085646E-001
   1.75000000E+002   9.72103654E-001   8.03796829E-001   9.72048475E-001
   1.80000000E+002   9.73922806E-001   8.03798533E-001   9.73874759E-001
   1.85000000E+002   9.75612991E-001   8.03799969E-001   9.75571003E-001
   1.90000000E+002   9.77157632E-001   8.03801185E-001   9.77120811E-001
   1.95000000E+002   9.78588837E-001   8.03802220E-001   9.78556441E-001
   2.00000000E+002   9.79897333E-001   8.03803105E-001   9.79868740E-001
   2.05000000E+002   9.81119398E-001   8.03803865E-001   9.81094087E-001
   2.10000000E+002   9.82253723E-001   8.03804520E-001   9.82231254E-001
   2.15000000E+002   9.83309412E-001   8.03805086E-001   9.83289410E-001
   2.20000000E+002   9.84284172E-001   8.03805578E-001   9.84266320E-001
   2.25000000E+002   9.85187987E-001   8.03806007E-001   9.85172015E-001
   2.30000000E+002   9.86039630E-001   8.03806382E-001   9.86025305E-001
   2.35000000E+002   9.86836134E-001   8.03806710E-001   9.86823257E-001
   2.40000000E+002   9.87558264E-001   8.03806999E-001   9.87546663E-001
   2.45000000E+002   9.88248808E-001   8.03807254E-001   9.88238334E-001
