# ./jetvheto -in n3lo-fixed-order/H125-LHC13-R04-mb-475-mt-1725-xmur050-xmuf050-log.fxd -xQ 0.25 -out benchmarks-n3lo-smallR/H125-LHC13-R04-mb-475-mt-1725-xmur050-xmuf050-xQ025-NNLO+NNLLb.res -scheme b -order 2 -ptmax 500.01 -fixed_order 2 -loop-mass t+b
# process = H    
# collider = pp   
# rts =  13000.000
# M   =    125.000
# muR =     62.500
# muF =     62.500
# Q   =     31.250
# p   =      5.000
# include_c1_squared =   F
# loop_mass  = t+b 
# alphas(MZ) =    0.11800
# alphas(M) =    0.11264
# alphas(muR) =    0.12516
# Rjet =      0.400
# order = NNLL
# pdf name and set = PDF4LHC15_nnlo_mc.LHgrid,    0
# matching scheme = b
# total cross sections [nb] at LO, NLOdiff, NNLOdiff, N3LOdiff =     0.014147    0.020254    0.008998    0.001413
#----------------------------------------------------------------------
# the lines that follow give the jet-veto efficiencies as a function of pt
#         pt            matched eff      resummed eff     fixed-order eff
   2.00000000E+001   3.60790105E-001   4.70688378E-001   3.08135668E-001
   2.50000000E+001   4.44584505E-001   5.37428246E-001   4.16958718E-001
   3.00000000E+001   5.16563351E-001   5.76940207E-001   5.02459671E-001
   3.50000000E+001   5.78392666E-001   5.98542631E-001   5.71196452E-001
   4.00000000E+001   6.31123951E-001   6.09922716E-001   6.27360842E-001
   4.50000000E+001   6.76342527E-001   6.15946657E-001   6.74295094E-001
   5.00000000E+001   7.14980286E-001   6.19231012E-001   7.13816378E-001
   5.50000000E+001   7.47998606E-001   6.21092906E-001   7.47307378E-001
   6.00000000E+001   7.76439826E-001   6.22191623E-001   7.76012324E-001
   6.50000000E+001   8.01025840E-001   6.22864916E-001   8.00751743E-001
   7.00000000E+001   8.22523420E-001   6.23291858E-001   8.22342000E-001
   7.50000000E+001   8.41147969E-001   6.23570979E-001   8.41024239E-001
   8.00000000E+001   8.57568308E-001   6.23758481E-001   8.57481768E-001
   8.50000000E+001   8.72090142E-001   6.23887513E-001   8.72028209E-001
   9.00000000E+001   8.84833692E-001   6.23978242E-001   8.84788465E-001
   9.50000000E+001   8.96063752E-001   6.24043279E-001   8.96030076E-001
   1.00000000E+002   9.06113576E-001   6.24090716E-001   9.06088095E-001
   1.05000000E+002   9.15042462E-001   6.24125861E-001   9.15022873E-001
   1.10000000E+002   9.22982836E-001   6.24152272E-001   9.22967578E-001
   1.15000000E+002   9.30135560E-001   6.24172377E-001   9.30123525E-001
   1.20000000E+002   9.36534794E-001   6.24187865E-001   9.36525194E-001
   1.25000000E+002   9.42349714E-001   6.24199926E-001   9.42341979E-001
   1.30000000E+002   9.47518973E-001   6.24209413E-001   9.47512677E-001
   1.35000000E+002   9.52197874E-001   6.24216943E-001   9.52192707E-001
   1.40000000E+002   9.56457794E-001   6.24222973E-001   9.56453519E-001
   1.45000000E+002   9.60294818E-001   6.24227839E-001   9.60291255E-001
   1.50000000E+002   9.63808953E-001   6.24231795E-001   9.63805964E-001
   1.55000000E+002   9.66989341E-001   6.24235034E-001   9.66986816E-001
   1.60000000E+002   9.69874521E-001   6.24237702E-001   9.69872376E-001
   1.65000000E+002   9.72481751E-001   6.24239914E-001   9.72479918E-001
   1.70000000E+002   9.74858497E-001   6.24241758E-001   9.74856924E-001
   1.75000000E+002   9.77059547E-001   6.24243304E-001   9.77058190E-001
   1.80000000E+002   9.79027286E-001   6.24244606E-001   9.79026110E-001
   1.85000000E+002   9.80856042E-001   6.24245708E-001   9.80855018E-001
   1.90000000E+002   9.82521977E-001   6.24246645E-001   9.82521082E-001
   1.95000000E+002   9.84038549E-001   6.24247446E-001   9.84037765E-001
   2.00000000E+002   9.85421407E-001   6.24248132E-001   9.85420716E-001
   2.05000000E+002   9.86697830E-001   6.24248722E-001   9.86697220E-001
   2.10000000E+002   9.87837362E-001   6.24249232E-001   9.87836822E-001
   2.15000000E+002   9.88920026E-001   6.24249674E-001   9.88919546E-001
   2.20000000E+002   9.89913503E-001   6.24250059E-001   9.89913075E-001
   2.25000000E+002   9.90787039E-001   6.24250394E-001   9.90786656E-001
   2.30000000E+002   9.91640701E-001   6.24250688E-001   9.91640359E-001
   2.35000000E+002   9.92385055E-001   6.24250946E-001   9.92384747E-001
   2.40000000E+002   9.93082846E-001   6.24251172E-001   9.93082569E-001
   2.45000000E+002   9.93712121E-001   6.24251373E-001   9.93711871E-001
