# ./jetvheto -in n3lo-fixed-order/H125-LHC13-R04-mb-475-mt-1725-xmur200-xmuf100-log.fxd -xQ 0.0625 -out benchmarks-n3lo-smallR/H125-LHC13-R04-mb-475-mt-1725-xmur200-xmuf100-xQ0625-N3LO+NNLLa.R0-1.0.res -scheme a -order 2 -ptmax 500.01 -fixed_order 3 -small-r -loop-mass t+b -R0 1.0
# process = H    
# collider = pp   
# rts =  13000.000
# M   =    125.000
# muR =    250.000
# muF =    125.000
# Q   =      7.812
# p   =      5.000
# include_c1_squared =   F
# loop_mass  = t+b 
# alphas(MZ) =    0.11800
# alphas(M) =    0.11264
# alphas(muR) =    0.10244
# Rjet =      0.400
# order = NNLL
# pdf name and set = PDF4LHC15_nnlo_mc.LHgrid,    0
# matching scheme = a
# total cross sections [nb] at LO, NLOdiff, NNLOdiff, N3LOdiff =     0.010243    0.014468    0.010526    0.005600
#----------------------------------------------------------------------
# the lines that follow give the jet-veto efficiencies as a function of pt
#         pt            matched eff      resummed eff     fixed-order eff
   2.00000000E+001   4.73412157E-001   3.57386531E-001   4.73494745E-001
   2.50000000E+001   5.56521402E-001   3.57978901E-001   5.56567496E-001
   3.00000000E+001   6.24576401E-001   3.58152354E-001   6.24602117E-001
   3.50000000E+001   6.77934713E-001   3.58215062E-001   6.77949159E-001
   4.00000000E+001   7.21145256E-001   3.58241376E-001   7.21153727E-001
   4.50000000E+001   7.56582022E-001   3.58253711E-001   7.56587199E-001
   5.00000000E+001   7.86568775E-001   3.58260010E-001   7.86572074E-001
   5.50000000E+001   8.12112472E-001   3.58263453E-001   8.12114650E-001
   6.00000000E+001   8.33813274E-001   3.58265442E-001   8.33814754E-001
   6.50000000E+001   8.52988451E-001   3.58266646E-001   8.52989485E-001
   7.00000000E+001   8.69316646E-001   3.58267404E-001   8.69317384E-001
   7.50000000E+001   8.83061651E-001   3.58267897E-001   8.83062188E-001
   8.00000000E+001   8.95187372E-001   3.58268227E-001   8.95187770E-001
   8.50000000E+001   9.06013301E-001   3.58268453E-001   9.06013600E-001
   9.00000000E+001   9.15413914E-001   3.58268612E-001   9.15414143E-001
   9.50000000E+001   9.23902488E-001   3.58268726E-001   9.23902665E-001
   1.00000000E+002   9.31139895E-001   3.58268809E-001   9.31140034E-001
   1.05000000E+002   9.37649015E-001   3.58268870E-001   9.37649125E-001
   1.10000000E+002   9.43455393E-001   3.58268917E-001   9.43455481E-001
   1.15000000E+002   9.48688732E-001   3.58268952E-001   9.48688803E-001
   1.20000000E+002   9.53242375E-001   3.58268979E-001   9.53242433E-001
   1.25000000E+002   9.57293781E-001   3.58269000E-001   9.57293828E-001
   1.30000000E+002   9.61190267E-001   3.58269016E-001   9.61190307E-001
   1.35000000E+002   9.64657275E-001   3.58269029E-001   9.64657308E-001
   1.40000000E+002   9.67630761E-001   3.58269040E-001   9.67630788E-001
   1.45000000E+002   9.70446647E-001   3.58269049E-001   9.70446670E-001
   1.50000000E+002   9.72876728E-001   3.58269055E-001   9.72876747E-001
   1.55000000E+002   9.75363836E-001   3.58269061E-001   9.75363852E-001
   1.60000000E+002   9.77221525E-001   3.58269066E-001   9.77221540E-001
   1.65000000E+002   9.79111605E-001   3.58269070E-001   9.79111617E-001
   1.70000000E+002   9.80789988E-001   3.58269073E-001   9.80789999E-001
   1.75000000E+002   9.82384081E-001   3.58269076E-001   9.82384090E-001
   1.80000000E+002   9.83841430E-001   3.58269078E-001   9.83841438E-001
   1.85000000E+002   9.85164032E-001   3.58269080E-001   9.85164039E-001
   1.90000000E+002   9.86187291E-001   3.58269081E-001   9.86187297E-001
   1.95000000E+002   9.87359217E-001   3.58269083E-001   9.87359222E-001
   2.00000000E+002   9.88375995E-001   3.58269084E-001   9.88375999E-001
   2.05000000E+002   9.89272222E-001   3.58269085E-001   9.89272227E-001
   2.10000000E+002   9.90085236E-001   3.58269086E-001   9.90085240E-001
   2.15000000E+002   9.90918027E-001   3.58269087E-001   9.90918031E-001
   2.20000000E+002   9.91582460E-001   3.58269087E-001   9.91582463E-001
   2.25000000E+002   9.92246922E-001   3.58269088E-001   9.92246925E-001
   2.30000000E+002   9.92862347E-001   3.58269088E-001   9.92862349E-001
   2.35000000E+002   9.93432540E-001   3.58269089E-001   9.93432542E-001
   2.40000000E+002   9.93864255E-001   3.58269089E-001   9.93864257E-001
   2.45000000E+002   9.94374270E-001   3.58269090E-001   9.94374272E-001
