# ./jetvheto -in n3lo-fixed-order/H125-LHC13-R04-heft-xmur050-xmuf050-log.fxd -xQ 1.00 -out benchmarks-n3lo-smallR/H125-LHC13-R04-heft-xmur050-xmuf050-xQ100-N3LO+NNLLa.R0-2.0.res -scheme a -order 2 -ptmax 500.01 -fixed_order 3 -small-r -R0 2.0
# process = H    
# collider = pp   
# rts =  13000.000
# M   =    125.000
# muR =     62.500
# muF =     62.500
# Q   =    125.000
# p   =      5.000
# include_c1_squared =   F
# loop_mass  = none
# alphas(MZ) =    0.11800
# alphas(M) =    0.11264
# alphas(muR) =    0.12516
# Rjet =      0.400
# order = NNLL
# pdf name and set = PDF4LHC15_nnlo_mc.LHgrid,    0
# matching scheme = a
# total cross sections [nb] at LO, NLOdiff, NNLOdiff, N3LOdiff =     0.015055    0.019611    0.008998    0.001413
#----------------------------------------------------------------------
# the lines that follow give the jet-veto efficiencies as a function of pt
#         pt            matched eff      resummed eff     fixed-order eff
   2.00000000E+001   5.41595182E-001   6.69471752E-001   4.50065620E-001
   2.50000000E+001   6.15273522E-001   7.37285343E-001   5.35117843E-001
   3.00000000E+001   6.78199128E-001   7.82836744E-001   6.07875407E-001
   3.50000000E+001   7.27540653E-001   8.12886748E-001   6.65471707E-001
   4.00000000E+001   7.65037857E-001   8.32013180E-001   7.10255567E-001
   4.50000000E+001   7.98077157E-001   8.43289018E-001   7.49462038E-001
   5.00000000E+001   8.23912942E-001   8.48853578E-001   7.80889863E-001
   5.50000000E+001   8.46426639E-001   8.50245468E-001   8.08255100E-001
   6.00000000E+001   8.64394166E-001   8.48585164E-001   8.30655804E-001
   6.50000000E+001   8.81346004E-001   8.44714162E-001   8.51359759E-001
   7.00000000E+001   8.93790831E-001   8.39280092E-001   8.67401068E-001
   7.50000000E+001   9.04963908E-001   8.32782879E-001   8.81721105E-001
   8.00000000E+001   9.15112573E-001   8.25618196E-001   8.94630807E-001
   8.50000000E+001   9.24099517E-001   8.18105070E-001   9.06075690E-001
   9.00000000E+001   9.32022993E-001   8.10500901E-001   9.16194285E-001
   9.50000000E+001   9.38100082E-001   8.03010462E-001   9.24302841E-001
   1.00000000E+002   9.44008057E-001   7.95794548E-001   9.31969203E-001
   1.05000000E+002   9.48550398E-001   7.88972954E-001   9.38114001E-001
   1.10000000E+002   9.52823062E-001   7.82628575E-001   9.43779750E-001
   1.15000000E+002   9.56944380E-001   7.76812118E-001   9.49102964E-001
   1.20000000E+002   9.60698212E-001   7.71545147E-001   9.53905269E-001
   1.25000000E+002   9.63734366E-001   7.66826342E-001   9.57868349E-001
   1.30000000E+002   9.66395296E-001   7.62636897E-001   9.61333266E-001
   1.35000000E+002   9.69178582E-001   7.58945448E-001   9.64797911E-001
   1.40000000E+002   9.71727638E-001   7.55712689E-001   9.67934219E-001
   1.45000000E+002   9.73908775E-001   7.52895233E-001   9.70623723E-001
   1.50000000E+002   9.75566576E-001   7.50448626E-001   9.72725389E-001
   1.55000000E+002   9.77599111E-001   7.48329526E-001   9.75127782E-001
   1.60000000E+002   9.79456211E-001   7.46497140E-001   9.77303274E-001
   1.65000000E+002   9.80505722E-001   7.44914024E-001   9.78635491E-001
   1.70000000E+002   9.82002740E-001   7.43546572E-001   9.80367872E-001
   1.75000000E+002   9.83423119E-001   7.42365047E-001   9.81990419E-001
   1.80000000E+002   9.84496800E-001   7.41343380E-001   9.83240537E-001
   1.85000000E+002   9.85488417E-001   7.40458939E-001   9.84384183E-001
   1.90000000E+002   9.86538405E-001   7.39692206E-001   9.85564426E-001
   1.95000000E+002   9.87513675E-001   7.39026423E-001   9.86652461E-001
   2.00000000E+002   9.88386791E-001   7.38447252E-001   9.87623667E-001
   2.05000000E+002   9.89088799E-001   7.37942447E-001   9.88411596E-001
   2.10000000E+002   9.89813344E-001   7.37501569E-001   9.89210583E-001
   2.15000000E+002   9.90370451E-001   7.37115718E-001   9.89833220E-001
   2.20000000E+002   9.91189740E-001   7.36777307E-001   9.90708699E-001
   2.25000000E+002   9.91618469E-001   7.36479870E-001   9.91187907E-001
   2.30000000E+002   9.92155113E-001   7.36217884E-001   9.91768546E-001
   2.35000000E+002   9.92560799E-001   7.35986633E-001   9.92213208E-001
   2.40000000E+002   9.93003867E-001   7.35782079E-001   9.92690544E-001
   2.45000000E+002   9.93526013E-001   7.35600763E-001   9.93242783E-001
