# ./jetvheto -in n3lo-fixed-order/H125-LHC13-R04-heft-xmur050-xmuf050-log.fxd -xQ 1.00 -out benchmarks-n3lo-smallR/H125-LHC13-R04-heft-xmur050-xmuf050-xQ100-N3LO+NNLLa.R0-1.5.res -scheme a -order 2 -ptmax 500.01 -fixed_order 3 -small-r -R0 1.5
# process = H    
# collider = pp   
# rts =  13000.000
# M   =    125.000
# muR =     62.500
# muF =     62.500
# Q   =    125.000
# p   =      5.000
# include_c1_squared =   F
# loop_mass  = none
# alphas(MZ) =    0.11800
# alphas(M) =    0.11264
# alphas(muR) =    0.12516
# Rjet =      0.400
# order = NNLL
# pdf name and set = PDF4LHC15_nnlo_mc.LHgrid,    0
# matching scheme = a
# total cross sections [nb] at LO, NLOdiff, NNLOdiff, N3LOdiff =     0.015055    0.019611    0.008998    0.001413
#----------------------------------------------------------------------
# the lines that follow give the jet-veto efficiencies as a function of pt
#         pt            matched eff      resummed eff     fixed-order eff
   2.00000000E+001   5.19290611E-001   6.40256005E-001   4.50065620E-001
   2.50000000E+001   5.97712253E-001   7.14653652E-001   5.35117843E-001
   3.00000000E+001   6.64096935E-001   7.65090888E-001   6.07875407E-001
   3.50000000E+001   7.16143843E-001   7.98819077E-001   6.65471707E-001
   4.00000000E+001   7.55793096E-001   8.20757329E-001   7.10255567E-001
   4.50000000E+001   7.90501359E-001   8.34214176E-001   7.49462038E-001
   5.00000000E+001   8.17688374E-001   8.41492131E-001   7.80889863E-001
   5.50000000E+001   8.41284463E-001   8.44244631E-001   8.08255100E-001
   6.00000000E+001   8.60139335E-001   8.43674561E-001   8.30655804E-001
   6.50000000E+001   8.77808620E-001   8.40683576E-001   8.51359759E-001
   7.00000000E+001   8.90853654E-001   8.35963988E-001   8.67401068E-001
   7.50000000E+001   9.02519959E-001   8.30049494E-001   8.81721105E-001
   8.00000000E+001   9.13075574E-001   8.23361668E-001   8.94630807E-001
   8.50000000E+001   9.22400010E-001   8.16239689E-001   9.06075690E-001
   9.00000000E+001   9.30603908E-001   8.08956857E-001   9.16194285E-001
   9.50000000E+001   9.36915611E-001   8.01730647E-001   9.24302841E-001
   1.00000000E+002   9.43017583E-001   7.94732114E-001   9.31969203E-001
   1.05000000E+002   9.47721876E-001   7.88089413E-001   9.38114001E-001
   1.10000000E+002   9.52128647E-001   7.81892293E-001   9.43779750E-001
   1.15000000E+002   9.56361002E-001   7.76197107E-001   9.49102964E-001
   1.20000000E+002   9.60207003E-001   7.71030070E-001   9.53905269E-001
   1.25000000E+002   9.63319932E-001   7.66393702E-001   9.57868349E-001
   1.30000000E+002   9.66044704E-001   7.62272356E-001   9.61333266E-001
   1.35000000E+002   9.68880956E-001   7.58637263E-001   9.64797911E-001
   1.40000000E+002   9.71474183E-001   7.55451244E-001   9.67934219E-001
   1.45000000E+002   9.73692280E-001   7.52672650E-001   9.70623723E-001
   1.50000000E+002   9.75381121E-001   7.50258445E-001   9.72725389E-001
   1.55000000E+002   9.77439594E-001   7.48166442E-001   9.75127782E-001
   1.60000000E+002   9.79318548E-001   7.46356790E-001   9.77303274E-001
   1.65000000E+002   9.80386631E-001   7.44792809E-001   9.78635491E-001
   1.70000000E+002   9.81899297E-001   7.43441520E-001   9.80367872E-001
   1.75000000E+002   9.83332973E-001   7.42273692E-001   9.81990419E-001
   1.80000000E+002   9.84418021E-001   7.41263673E-001   9.83240537E-001
   1.85000000E+002   9.85419358E-001   7.40389172E-001   9.84384183E-001
   1.90000000E+002   9.86477675E-001   7.39630948E-001   9.85564426E-001
   1.95000000E+002   9.87460115E-001   7.38972475E-001   9.86652461E-001
   2.00000000E+002   9.88339424E-001   7.38399603E-001   9.87623667E-001
   2.05000000E+002   9.89046803E-001   7.37900245E-001   9.88411596E-001
   2.10000000E+002   9.89776007E-001   7.37464089E-001   9.89210583E-001
   2.15000000E+002   9.90337178E-001   7.37082345E-001   9.89833220E-001
   2.20000000E+002   9.91160005E-001   7.36747517E-001   9.90708699E-001
   2.25000000E+002   9.91591845E-001   7.36453214E-001   9.91187907E-001
   2.30000000E+002   9.92131216E-001   7.36193977E-001   9.91768546E-001
   2.35000000E+002   9.92539305E-001   7.35965143E-001   9.92213208E-001
   2.40000000E+002   9.92984493E-001   7.35762720E-001   9.92690544E-001
   2.45000000E+002   9.93508512E-001   7.35583288E-001   9.93242783E-001
