# ./jetvheto -in n3lo-fixed-order/H125-LHC13-R04-mb-0-mt-1725-xmur050-xmuf050-log.fxd -xQ 0.125 -out benchmarks-n3lo-smallR/H125-LHC13-R04-mb-0-mt-1725-xmur050-xmuf050-xQ0125-NNLO+NNLLa.R0-1.0.res -scheme a -order 2 -ptmax 500.01 -small-r -fixed_order 2 -loop-mass t -R0 1.0
# process = H    
# collider = pp   
# rts =  13000.000
# M   =    125.000
# muR =     62.500
# muF =     62.500
# Q   =     15.625
# p   =      5.000
# include_c1_squared =   F
# loop_mass  = t   
# alphas(MZ) =    0.11800
# alphas(M) =    0.11264
# alphas(muR) =    0.12516
# Rjet =      0.400
# order = NNLL
# pdf name and set = PDF4LHC15_nnlo_mc.LHgrid,    0
# matching scheme = a
# total cross sections [nb] at LO, NLOdiff, NNLOdiff, N3LOdiff =     0.015885    0.020561    0.008998    0.001413
#----------------------------------------------------------------------
# the lines that follow give the jet-veto efficiencies as a function of pt
#         pt            matched eff      resummed eff     fixed-order eff
   2.00000000E+001   4.68239748E-001   4.41512778E-001   4.69057413E-001
   2.50000000E+001   5.54539695E-001   4.56040136E-001   5.55288671E-001
   3.00000000E+001   6.21860974E-001   4.60774215E-001   6.22338019E-001
   3.50000000E+001   6.75586300E-001   4.62548176E-001   6.75875821E-001
   4.00000000E+001   7.19218281E-001   4.63302976E-001   7.19396295E-001
   4.50000000E+001   7.55231730E-001   4.63658964E-001   7.55344248E-001
   5.00000000E+001   7.85610161E-001   4.63841286E-001   7.85683467E-001
   5.50000000E+001   8.10971427E-001   4.63941105E-001   8.11020538E-001
   6.00000000E+001   8.32723483E-001   4.63998835E-001   8.32757246E-001
   6.50000000E+001   8.51478201E-001   4.64033787E-001   8.51501964E-001
   7.00000000E+001   8.67717589E-001   4.64055785E-001   8.67734675E-001
   7.50000000E+001   8.81750543E-001   4.64070097E-001   8.81763053E-001
   8.00000000E+001   8.94077759E-001   4.64079681E-001   8.94087077E-001
   8.50000000E+001   9.04939564E-001   4.64086262E-001   9.04946611E-001
   9.00000000E+001   9.14511912E-001   4.64090882E-001   9.14517318E-001
   9.50000000E+001   9.22898878E-001   4.64094191E-001   9.22903074E-001
   1.00000000E+002   9.30436870E-001   4.64096602E-001   9.30440166E-001
   1.05000000E+002   9.37032635E-001   4.64098388E-001   9.37035250E-001
   1.10000000E+002   9.42934562E-001   4.64099729E-001   9.42936658E-001
   1.15000000E+002   9.48230866E-001   4.64100750E-001   9.48232561E-001
   1.20000000E+002   9.52996762E-001   4.64101536E-001   9.52998144E-001
   1.25000000E+002   9.57325325E-001   4.64102148E-001   9.57326460E-001
   1.30000000E+002   9.61147710E-001   4.64102629E-001   9.61148649E-001
   1.35000000E+002   9.64600998E-001   4.64103011E-001   9.64601780E-001
   1.40000000E+002   9.67750277E-001   4.64103317E-001   9.67750932E-001
   1.45000000E+002   9.70612084E-001   4.64103564E-001   9.70612637E-001
   1.50000000E+002   9.73232094E-001   4.64103764E-001   9.73232562E-001
   1.55000000E+002   9.75586597E-001   4.64103929E-001   9.75586996E-001
   1.60000000E+002   9.77726906E-001   4.64104064E-001   9.77727247E-001
   1.65000000E+002   9.79660597E-001   4.64104176E-001   9.79660891E-001
   1.70000000E+002   9.81439349E-001   4.64104270E-001   9.81439603E-001
   1.75000000E+002   9.83053451E-001   4.64104348E-001   9.83053670E-001
   1.80000000E+002   9.84507331E-001   4.64104414E-001   9.84507522E-001
   1.85000000E+002   9.85854110E-001   4.64104470E-001   9.85854277E-001
   1.90000000E+002   9.87085267E-001   4.64104517E-001   9.87085413E-001
   1.95000000E+002   9.88208185E-001   4.64104558E-001   9.88208314E-001
   2.00000000E+002   9.89235859E-001   4.64104593E-001   9.89235973E-001
   2.05000000E+002   9.90177658E-001   4.64104623E-001   9.90177759E-001
   2.10000000E+002   9.91021187E-001   4.64104649E-001   9.91021276E-001
   2.15000000E+002   9.91819561E-001   4.64104671E-001   9.91819641E-001
   2.20000000E+002   9.92548991E-001   4.64104691E-001   9.92549062E-001
   2.25000000E+002   9.93196690E-001   4.64104708E-001   9.93196753E-001
   2.30000000E+002   9.93833040E-001   4.64104722E-001   9.93833097E-001
   2.35000000E+002   9.94380311E-001   4.64104736E-001   9.94380362E-001
   2.40000000E+002   9.94897854E-001   4.64104747E-001   9.94897900E-001
   2.45000000E+002   9.95371164E-001   4.64104757E-001   9.95371206E-001
