# ./jetvheto -in n3lo-fixed-order/H125-LHC13-R04-heft-xmur050-xmuf025-log.fxd -xQ 0.50 -out benchmarks-n3lo-smallR/H125-LHC13-R04-heft-xmur050-xmuf025-xQ050-NNLO+NNLLa.R0-2.0.res -scheme a -order 2 -ptmax 500.01 -fixed_order 2 -small-r -R0 2.0
# process = H    
# collider = pp   
# rts =  13000.000
# M   =    125.000
# muR =     62.500
# muF =     31.250
# Q   =     62.500
# p   =      5.000
# include_c1_squared =   F
# loop_mass  = none
# alphas(MZ) =    0.11800
# alphas(M) =    0.11264
# alphas(muR) =    0.12516
# Rjet =      0.400
# order = NNLL
# pdf name and set = PDF4LHC15_nnlo_mc.LHgrid,    0
# matching scheme = a
# total cross sections [nb] at LO, NLOdiff, NNLOdiff, N3LOdiff =     0.013759    0.019772    0.009723    0.001827
#----------------------------------------------------------------------
# the lines that follow give the jet-veto efficiencies as a function of pt
#         pt            matched eff      resummed eff     fixed-order eff
   2.00000000E+001   4.65157734E-001   4.95952034E-001   4.59941281E-001
   2.50000000E+001   5.50689976E-001   5.72925098E-001   5.44662792E-001
   3.00000000E+001   6.18237038E-001   6.27849006E-001   6.10852060E-001
   3.50000000E+001   6.72371341E-001   6.66564593E-001   6.64138409E-001
   4.00000000E+001   7.16000071E-001   6.93403573E-001   7.07592961E-001
   4.50000000E+001   7.51707382E-001   7.11563536E-001   7.43735916E-001
   5.00000000E+001   7.81166693E-001   7.23495035E-001   7.74036862E-001
   5.50000000E+001   8.05883575E-001   7.31106545E-001   7.99799642E-001
   6.00000000E+001   8.26980757E-001   7.35843644E-001   8.21967731E-001
   6.50000000E+001   8.45051415E-001   7.38746220E-001   8.41021855E-001
   7.00000000E+001   8.60789253E-001   7.40517733E-001   8.57600906E-001
   7.50000000E+001   8.74453479E-001   7.41607160E-001   8.71951139E-001
   8.00000000E+001   8.86593020E-001   7.42288703E-001   8.84634823E-001
   8.50000000E+001   8.97321654E-001   7.42725045E-001   8.95787216E-001
   9.00000000E+001   9.06831153E-001   7.43011807E-001   9.05624010E-001
   9.50000000E+001   9.15250980E-001   7.43205382E-001   9.14295858E-001
   1.00000000E+002   9.22809189E-001   7.43339469E-001   9.22048516E-001
   1.05000000E+002   9.29583650E-001   7.43434599E-001   9.28973570E-001
   1.10000000E+002   9.35682270E-001   7.43503570E-001   9.35189413E-001
   1.15000000E+002   9.41167342E-001   7.43554555E-001   9.40766351E-001
   1.20000000E+002   9.46086610E-001   7.43592899E-001   9.45758066E-001
   1.25000000E+002   9.50469153E-001   7.43622182E-001   9.50198140E-001
   1.30000000E+002   9.54491268E-001   7.43644851E-001   9.54266278E-001
   1.35000000E+002   9.58136493E-001   7.43662615E-001   9.57948570E-001
   1.40000000E+002   9.61405814E-001   7.43676688E-001   9.61247933E-001
   1.45000000E+002   9.64421017E-001   7.43687947E-001   9.64287642E-001
   1.50000000E+002   9.67124217E-001   7.43697035E-001   9.67010952E-001
   1.55000000E+002   9.69596690E-001   7.43704431E-001   9.69500027E-001
   1.60000000E+002   9.71865669E-001   7.43710495E-001   9.71782788E-001
   1.65000000E+002   9.73947637E-001   7.43715502E-001   9.73876259E-001
   1.70000000E+002   9.75837224E-001   7.43719661E-001   9.75775491E-001
   1.75000000E+002   9.77581586E-001   7.43723138E-001   9.77527984E-001
   1.80000000E+002   9.79172043E-001   7.43726059E-001   9.79125323E-001
   1.85000000E+002   9.80606118E-001   7.43728526E-001   9.80565251E-001
   1.90000000E+002   9.81952050E-001   7.43730621E-001   9.81916181E-001
   1.95000000E+002   9.83190808E-001   7.43732406E-001   9.83159224E-001
   2.00000000E+002   9.84320193E-001   7.43733935E-001   9.84292295E-001
   2.05000000E+002   9.85383989E-001   7.43735249E-001   9.85359274E-001
   2.10000000E+002   9.86373650E-001   7.43736384E-001   9.86351692E-001
   2.15000000E+002   9.87262997E-001   7.43737366E-001   9.87243438E-001
   2.20000000E+002   9.88110051E-001   7.43738220E-001   9.88092583E-001
   2.25000000E+002   9.88891715E-001   7.43738964E-001   9.88876075E-001
   2.30000000E+002   9.89599566E-001   7.43739616E-001   9.89585531E-001
   2.35000000E+002   9.90270541E-001   7.43740187E-001   9.90257916E-001
   2.40000000E+002   9.90884677E-001   7.43740689E-001   9.90873297E-001
   2.45000000E+002   9.91464327E-001   7.43741133E-001   9.91454048E-001
