# ./jetvheto -in n3lo-fixed-order/H125-LHC13-R04-heft-xmur100-xmuf200-log.fxd -xQ 0.50 -out benchmarks-n3lo-smallR/H125-LHC13-R04-heft-xmur100-xmuf200-xQ050-NNLO+NNLLa.res -scheme a -order 2 -ptmax 500.01 -fixed_order 2
# process = H    
# collider = pp   
# rts =  13000.000
# M   =    125.000
# muR =    125.000
# muF =    250.000
# Q   =     62.500
# p   =      5.000
# include_c1_squared =   F
# loop_mass  = none
# alphas(MZ) =    0.11800
# alphas(M) =    0.11264
# alphas(muR) =    0.11264
# Rjet =      0.400
# order = NNLL
# pdf name and set = PDF4LHC15_nnlo_mc.LHgrid,    0
# matching scheme = a
# total cross sections [nb] at LO, NLOdiff, NNLOdiff, N3LOdiff =     0.013467    0.016878    0.009991    0.003297
#----------------------------------------------------------------------
# the lines that follow give the jet-veto efficiencies as a function of pt
#         pt            matched eff      resummed eff     fixed-order eff
   2.00000000E+001   4.95464948E-001   5.27641152E-001   5.05991398E-001
   2.50000000E+001   5.83439986E-001   6.08966038E-001   5.88044316E-001
   3.00000000E+001   6.51458714E-001   6.66085259E-001   6.50748479E-001
   3.50000000E+001   7.04610405E-001   7.05685639E-001   7.00208903E-001
   4.00000000E+001   7.46579981E-001   7.32595646E-001   7.40126597E-001
   4.50000000E+001   7.80317783E-001   7.50375290E-001   7.73138493E-001
   5.00000000E+001   8.07513999E-001   7.61724634E-001   8.00519176E-001
   5.50000000E+001   8.29984557E-001   7.68707153E-001   8.23706557E-001
   6.00000000E+001   8.48692371E-001   7.72859019E-001   8.43354845E-001
   6.50000000E+001   8.64580587E-001   7.75262858E-001   8.60204573E-001
   7.00000000E+001   8.78347773E-001   7.76632523E-001   8.74840597E-001
   7.50000000E+001   8.90282908E-001   7.77409353E-001   8.87507747E-001
   8.00000000E+001   9.00837381E-001   7.77852494E-001   8.98653585E-001
   8.50000000E+001   9.10085507E-001   7.78108869E-001   9.08368213E-001
   9.00000000E+001   9.18353824E-001   7.78260211E-001   9.16999757E-001
   9.50000000E+001   9.25669910E-001   7.78351708E-001   9.24597242E-001
   1.00000000E+002   9.32125836E-001   7.78408494E-001   9.31271109E-001
   1.05000000E+002   9.37986427E-001   7.78444730E-001   9.37300792E-001
   1.10000000E+002   9.43236129E-001   7.78468495E-001   9.42682337E-001
   1.15000000E+002   9.47928999E-001   7.78484504E-001   9.47478602E-001
   1.20000000E+002   9.52163466E-001   7.78495565E-001   9.51794658E-001
   1.25000000E+002   9.55955934E-001   7.78503394E-001   9.55651936E-001
   1.30000000E+002   9.59384954E-001   7.78509057E-001   9.59132780E-001
   1.35000000E+002   9.62537251E-001   7.78513239E-001   9.62326785E-001
   1.40000000E+002   9.65372401E-001   7.78516384E-001   9.65195726E-001
   1.45000000E+002   9.67941667E-001   7.78518788E-001   9.67792544E-001
   1.50000000E+002   9.70282243E-001   7.78520655E-001   9.70155718E-001
   1.55000000E+002   9.72412368E-001   7.78522124E-001   9.72304482E-001
   1.60000000E+002   9.74388871E-001   7.78523294E-001   9.74296447E-001
   1.65000000E+002   9.76182952E-001   7.78524236E-001   9.76103423E-001
   1.70000000E+002   9.77820209E-001   7.78525002E-001   9.77751486E-001
   1.75000000E+002   9.79299478E-001   7.78525630E-001   9.79239856E-001
   1.80000000E+002   9.80677595E-001   7.78526150E-001   9.80625671E-001
   1.85000000E+002   9.81957451E-001   7.78526583E-001   9.81912067E-001
   1.90000000E+002   9.83123335E-001   7.78526946E-001   9.83083532E-001
   1.95000000E+002   9.84202916E-001   7.78527253E-001   9.84167892E-001
   2.00000000E+002   9.85189080E-001   7.78527513E-001   9.85158166E-001
   2.05000000E+002   9.86109495E-001   7.78527735E-001   9.86082127E-001
   2.10000000E+002   9.86964189E-001   7.78527925E-001   9.86939891E-001
   2.15000000E+002   9.87758962E-001   7.78528089E-001   9.87737331E-001
   2.20000000E+002   9.88490141E-001   7.78528230E-001   9.88470834E-001
   2.25000000E+002   9.89167324E-001   7.78528353E-001   9.89150049E-001
   2.30000000E+002   9.89806146E-001   7.78528460E-001   9.89790652E-001
   2.35000000E+002   9.90402713E-001   7.78528554E-001   9.90388785E-001
   2.40000000E+002   9.90939251E-001   7.78528636E-001   9.90926703E-001
   2.45000000E+002   9.91455499E-001   7.78528708E-001   9.91444170E-001
