# ./jetvheto -in n3lo-fixed-order/H125-LHC13-R04-mb-475-mt-1725-xmur050-xmuf050-log.fxd -xQ 0.75 -out benchmarks-n3lo-smallR/H125-LHC13-R04-mb-475-mt-1725-xmur050-xmuf050-xQ075-NNLO+NNLLb.R0-1.5.res -scheme b -order 2 -ptmax 500.01 -fixed_order 2 -small-r -loop-mass t+b -R0 1.5
# process = H    
# collider = pp   
# rts =  13000.000
# M   =    125.000
# muR =     62.500
# muF =     62.500
# Q   =     93.750
# p   =      5.000
# include_c1_squared =   F
# loop_mass  = t+b 
# alphas(MZ) =    0.11800
# alphas(M) =    0.11264
# alphas(muR) =    0.12516
# Rjet =      0.400
# order = NNLL
# pdf name and set = PDF4LHC15_nnlo_mc.LHgrid,    0
# matching scheme = b
# total cross sections [nb] at LO, NLOdiff, NNLOdiff, N3LOdiff =     0.014147    0.020254    0.008998    0.001413
#----------------------------------------------------------------------
# the lines that follow give the jet-veto efficiencies as a function of pt
#         pt            matched eff      resummed eff     fixed-order eff
   2.00000000E+001   4.45135098E-001   5.39168398E-001   3.08135668E-001
   2.50000000E+001   5.25786168E-001   6.11565884E-001   4.16958718E-001
   3.00000000E+001   5.91370263E-001   6.61859521E-001   5.02459671E-001
   3.50000000E+001   6.45279222E-001   6.96504573E-001   5.71196452E-001
   4.00000000E+001   6.89827318E-001   7.19912269E-001   6.27360842E-001
   4.50000000E+001   7.27357347E-001   7.35165459E-001   6.74295094E-001
   5.00000000E+001   7.59028361E-001   7.44464864E-001   7.13816378E-001
   5.50000000E+001   7.85846943E-001   7.49431498E-001   7.47307378E-001
   6.00000000E+001   8.08818524E-001   7.51278237E-001   7.76012324E-001
   6.50000000E+001   8.28596211E-001   7.50942298E-001   8.00751743E-001
   7.00000000E+001   8.45894866E-001   7.49158205E-001   8.22342000E-001
   7.50000000E+001   8.60862625E-001   7.46499478E-001   8.41024239E-001
   8.00000000E+001   8.74131441E-001   7.43405305E-001   8.57481768E-001
   8.50000000E+001   8.85958514E-001   7.40196768E-001   8.72028209E-001
   9.00000000E+001   8.96413559E-001   7.37093062E-001   8.84788465E-001
   9.50000000E+001   9.05715253E-001   7.34227856E-001   8.96030076E-001
   1.00000000E+002   9.14154039E-001   7.31670097E-001   9.06088095E-001
   1.05000000E+002   9.21742352E-001   7.29441867E-001   9.15022873E-001
   1.10000000E+002   9.28572097E-001   7.27534714E-001   9.22967578E-001
   1.15000000E+002   9.34807708E-001   7.25922652E-001   9.30123525E-001
   1.20000000E+002   9.40450083E-001   7.24571529E-001   9.36525194E-001
   1.25000000E+002   9.45640890E-001   7.23445089E-001   9.42341979E-001
   1.30000000E+002   9.50294171E-001   7.22508751E-001   9.47512677E-001
   1.35000000E+002   9.54546395E-001   7.21731313E-001   9.52192707E-001
   1.40000000E+002   9.58452636E-001   7.21085623E-001   9.56453519E-001
   1.45000000E+002   9.61995477E-001   7.20548643E-001   9.60291255E-001
   1.50000000E+002   9.65264369E-001   7.20101143E-001   9.63805964E-001
   1.55000000E+002   9.68239466E-001   7.19727236E-001   9.66986816E-001
   1.60000000E+002   9.70952228E-001   7.19413883E-001   9.69872376E-001
   1.65000000E+002   9.73414103E-001   7.19150426E-001   9.72479918E-001
   1.70000000E+002   9.75667927E-001   7.18928169E-001   9.74856924E-001
   1.75000000E+002   9.77764687E-001   7.18740015E-001   9.77058190E-001
   1.80000000E+002   9.79643523E-001   7.18580174E-001   9.79026110E-001
   1.85000000E+002   9.81396323E-001   7.18443912E-001   9.80855018E-001
   1.90000000E+002   9.82997107E-001   7.18327347E-001   9.82521082E-001
   1.95000000E+002   9.84457604E-001   7.18227296E-001   9.84037765E-001
   2.00000000E+002   9.85792047E-001   7.18141132E-001   9.85420716E-001
   2.05000000E+002   9.87026553E-001   7.18066689E-001   9.86697220E-001
   2.10000000E+002   9.88129653E-001   7.18002170E-001   9.87836822E-001
   2.15000000E+002   9.89180602E-001   7.17946081E-001   9.88919546E-001
   2.20000000E+002   9.90146369E-001   7.17897177E-001   9.89913075E-001
   2.25000000E+002   9.90995611E-001   7.17854416E-001   9.90786656E-001
   2.30000000E+002   9.91827959E-001   7.17816922E-001   9.91640359E-001
   2.35000000E+002   9.92553525E-001   7.17783960E-001   9.92384747E-001
   2.40000000E+002   9.93234736E-001   7.17754906E-001   9.93082569E-001
   2.45000000E+002   9.93849336E-001   7.17729233E-001   9.93711871E-001
