# ./jetvheto -in n3lo-fixed-order/H125-LHC13-R04-heft-xmur100-xmuf100-log.fxd -xQ 1.00 -out benchmarks-n3lo-smallR/H125-LHC13-R04-heft-xmur100-xmuf100-xQ100-NNLO+NNLLb.res -scheme b -order 2 -ptmax 500.01 -fixed_order 2
# process = H    
# collider = pp   
# rts =  13000.000
# M   =    125.000
# muR =    125.000
# muF =    125.000
# Q   =    125.000
# p   =      5.000
# include_c1_squared =   F
# loop_mass  = none
# alphas(MZ) =    0.11800
# alphas(M) =    0.11264
# alphas(muR) =    0.11264
# Rjet =      0.400
# order = NNLL
# pdf name and set = PDF4LHC15_nnlo_mc.LHgrid,    0
# matching scheme = b
# total cross sections [nb] at LO, NLOdiff, NNLOdiff, N3LOdiff =     0.012945    0.016716    0.010146    0.003834
#----------------------------------------------------------------------
# the lines that follow give the jet-veto efficiencies as a function of pt
#         pt            matched eff      resummed eff     fixed-order eff
   2.00000000E+001   4.33179483E-001   5.76765964E-001   3.33152974E-001
   2.50000000E+001   5.19198825E-001   6.67091964E-001   4.42354030E-001
   3.00000000E+001   5.88973417E-001   7.30855913E-001   5.26280770E-001
   3.50000000E+001   6.46000254E-001   7.75533258E-001   5.92590428E-001
   4.00000000E+001   6.93316094E-001   8.06393501E-001   6.46413459E-001
   4.50000000E+001   7.32655327E-001   8.27120819E-001   6.90650611E-001
   5.00000000E+001   7.65724002E-001   8.40344113E-001   7.27636368E-001
   5.50000000E+001   7.93602797E-001   8.47977876E-001   7.58824117E-001
   6.00000000E+001   8.17390838E-001   8.51429224E-001   7.85509225E-001
   6.50000000E+001   8.37757667E-001   8.51753686E-001   8.08501674E-001
   7.00000000E+001   8.55117813E-001   8.49765071E-001   8.28308351E-001
   7.50000000E+001   8.70115997E-001   8.46099418E-001   8.45602652E-001
   8.00000000E+001   8.83084156E-001   8.41263815E-001   8.60742611E-001
   8.50000000E+001   8.94257243E-001   8.35666234E-001   8.73982907E-001
   9.00000000E+001   9.04092398E-001   8.29636911E-001   8.85762882E-001
   9.50000000E+001   9.12620755E-001   8.23439459E-001   8.96129047E-001
   1.00000000E+002   9.20119610E-001   8.17282837E-001   9.05347624E-001
   1.05000000E+002   9.26749925E-001   8.11327262E-001   9.13574722E-001
   1.10000000E+002   9.32590213E-001   8.05689281E-001   9.20889329E-001
   1.15000000E+002   9.37852631E-001   8.00448028E-001   9.27495781E-001
   1.20000000E+002   9.42544827E-001   7.95649447E-001   9.33407561E-001
   1.25000000E+002   9.46781847E-001   7.91312387E-001   9.38739831E-001
   1.30000000E+002   9.50608359E-001   7.87434477E-001   9.43544289E-001
   1.35000000E+002   9.54119734E-001   7.83997780E-001   9.47922026E-001
   1.40000000E+002   9.57264991E-001   7.80973889E-001   9.51833307E-001
   1.45000000E+002   9.60219003E-001   7.78328222E-001   9.55457933E-001
   1.50000000E+002   9.62858992E-001   7.76023431E-001   9.58686494E-001
   1.55000000E+002   9.65309909E-001   7.74021860E-001   9.61650523E-001
   1.60000000E+002   9.67592907E-001   7.72287248E-001   9.64380158E-001
   1.65000000E+002   9.69676988E-001   7.70785851E-001   9.66853279E-001
   1.70000000E+002   9.71632202E-001   7.69486984E-001   9.69146535E-001
   1.75000000E+002   9.73409646E-001   7.68363233E-001   9.71218357E-001
   1.80000000E+002   9.75081429E-001   7.67390431E-001   9.73146048E-001
   1.85000000E+002   9.76610797E-001   7.66547487E-001   9.74898433E-001
   1.90000000E+002   9.78037031E-001   7.65816131E-001   9.76518987E-001
   1.95000000E+002   9.79389954E-001   7.65180623E-001   9.78041382E-001
   2.00000000E+002   9.80633304E-001   7.64627456E-001   9.79433004E-001
   2.05000000E+002   9.81797127E-001   7.64145066E-001   9.80726600E-001
   2.10000000E+002   9.82869539E-001   7.63723574E-001   9.81912904E-001
   2.15000000E+002   9.83853741E-001   7.63354545E-001   9.82997248E-001
   2.20000000E+002   9.84787297E-001   7.63030779E-001   9.84018885E-001
   2.25000000E+002   9.85652743E-001   7.62746128E-001   9.84962045E-001
   2.30000000E+002   9.86464577E-001   7.62495340E-001   9.85842551E-001
   2.35000000E+002   9.87242271E-001   7.62273922E-001   9.86681004E-001
   2.40000000E+002   9.87946649E-001   7.62078027E-001   9.87439341E-001
   2.45000000E+002   9.88615519E-001   7.61904355E-001   9.88156143E-001
