# ./jetvheto -in n3lo-fixed-order/H125-LHC13-R04-mb-0-mt-1725-xmur025-xmuf025-log.fxd -xQ 0.5 -out benchmarks-n3lo-smallR/H125-LHC13-R04-mb-0-mt-1725-xmur025-xmuf025-xQ050-N3LO+NNLLb.R0-0.5.res -scheme b -order 2 -ptmax 500.01 -small-r -fixed_order 3 -loop-mass t -R0 0.5
# process = H    
# collider = pp   
# rts =  13000.000
# M   =    125.000
# muR =     31.250
# muF =     31.250
# Q   =     62.500
# p   =      5.000
# include_c1_squared =   F
# loop_mass  = t   
# alphas(MZ) =    0.11800
# alphas(M) =    0.11264
# alphas(muR) =    0.14091
# Rjet =      0.400
# order = NNLL
# pdf name and set = PDF4LHC15_nnlo_mc.LHgrid,    0
# matching scheme = b
# total cross sections [nb] at LO, NLOdiff, NNLOdiff, N3LOdiff =     0.018140    0.025356    0.006043   -0.002471
#----------------------------------------------------------------------
# the lines that follow give the jet-veto efficiencies as a function of pt
#         pt            matched eff      resummed eff     fixed-order eff
   2.00000000E+001   4.84548274E-001   4.84498124E-001   4.87197444E-001
   2.50000000E+001   5.74852419E-001   5.56299039E-001   5.72808377E-001
   3.00000000E+001   6.44523856E-001   6.06300396E-001   6.40033654E-001
   3.50000000E+001   6.99097136E-001   6.40665317E-001   6.93667740E-001
   4.00000000E+001   7.43598972E-001   6.63827129E-001   7.38265029E-001
   4.50000000E+001   7.80651973E-001   6.78986340E-001   7.75885549E-001
   5.00000000E+001   8.11013879E-001   6.88545035E-001   8.06967537E-001
   5.50000000E+001   8.37800899E-001   6.94333059E-001   8.34514649E-001
   6.00000000E+001   8.59288079E-001   6.97702705E-001   8.56658691E-001
   6.50000000E+001   8.75575456E-001   6.99598875E-001   8.73491663E-001
   7.00000000E+001   8.91707723E-001   7.00638578E-001   8.90085568E-001
   7.50000000E+001   9.05363014E-001   7.01198776E-001   9.04105497E-001
   8.00000000E+001   9.16205466E-001   7.01497551E-001   9.15225465E-001
   8.50000000E+001   9.26522534E-001   7.01655869E-001   9.25758034E-001
   9.00000000E+001   9.35543475E-001   7.01739240E-001   9.34943752E-001
   9.50000000E+001   9.41327407E-001   7.01782692E-001   9.40852628E-001
   1.00000000E+002   9.48952669E-001   7.01804876E-001   9.48575677E-001
   1.05000000E+002   9.54116602E-001   7.01815735E-001   9.53814240E-001
   1.10000000E+002   9.60016385E-001   7.01820589E-001   9.59772663E-001
   1.15000000E+002   9.64916627E-001   7.01822299E-001   9.64718601E-001
   1.20000000E+002   9.68376559E-001   7.01822407E-001   9.68214412E-001
   1.25000000E+002   9.71266334E-001   7.01821743E-001   9.71132765E-001
   1.30000000E+002   9.74630255E-001   7.01820752E-001   9.74519594E-001
   1.35000000E+002   9.77190818E-001   7.01819666E-001   9.77098521E-001
   1.40000000E+002   9.79717180E-001   7.01818604E-001   9.79639817E-001
   1.45000000E+002   9.82037252E-001   7.01817620E-001   9.81972039E-001
   1.50000000E+002   9.83919266E-001   7.01816736E-001   9.83864021E-001
   1.55000000E+002   9.85665959E-001   7.01815957E-001   9.85618934E-001
   1.60000000E+002   9.87741065E-001   7.01815276E-001   9.87700872E-001
   1.65000000E+002   9.88989092E-001   7.01814685E-001   9.88954556E-001
   1.70000000E+002   9.89912882E-001   7.01814174E-001   9.89883087E-001
   1.75000000E+002   9.91418195E-001   7.01813733E-001   9.91392403E-001
   1.80000000E+002   9.92153390E-001   7.01813352E-001   9.92130965E-001
   1.85000000E+002   9.93271959E-001   7.01813023E-001   9.93252407E-001
   1.90000000E+002   9.94012063E-001   7.01812739E-001   9.93994946E-001
   1.95000000E+002   9.94952423E-001   7.01812493E-001   9.94937393E-001
   2.00000000E+002   9.95446376E-001   7.01812279E-001   9.95433136E-001
   2.05000000E+002   9.95980695E-001   7.01812093E-001   9.95968995E-001
   2.10000000E+002   9.96460867E-001   7.01811932E-001   9.96450497E-001
   2.15000000E+002   9.97151608E-001   7.01811790E-001   9.97142399E-001
   2.20000000E+002   9.97484355E-001   7.01811667E-001   9.97476149E-001
   2.25000000E+002   9.98028028E-001   7.01811558E-001   9.98020700E-001
   2.30000000E+002   9.98320823E-001   7.01811463E-001   9.98314264E-001
   2.35000000E+002   9.98434090E-001   7.01811378E-001   9.98428204E-001
   2.40000000E+002   9.98840984E-001   7.01811304E-001   9.98835691E-001
   2.45000000E+002   9.99146915E-001   7.01811238E-001   9.99142145E-001
