# ./jetvheto -in n3lo-fixed-order/H125-LHC13-R04-mb-475-mt-1725-xmur200-xmuf100-log.fxd -xQ 0.5 -out benchmarks-n3lo-smallR/H125-LHC13-R04-mb-475-mt-1725-xmur200-xmuf100-xQ050-NNLO+NNLLa.R0-1.5.res -scheme a -order 2 -ptmax 500.01 -fixed_order 2 -small-r -loop-mass t+b -R0 1.5
# process = H    
# collider = pp   
# rts =  13000.000
# M   =    125.000
# muR =    250.000
# muF =    125.000
# Q   =     62.500
# p   =      5.000
# include_c1_squared =   F
# loop_mass  = t+b 
# alphas(MZ) =    0.11800
# alphas(M) =    0.11264
# alphas(muR) =    0.10244
# Rjet =      0.400
# order = NNLL
# pdf name and set = PDF4LHC15_nnlo_mc.LHgrid,    0
# matching scheme = a
# total cross sections [nb] at LO, NLOdiff, NNLOdiff, N3LOdiff =     0.010243    0.014468    0.010526    0.005600
#----------------------------------------------------------------------
# the lines that follow give the jet-veto efficiencies as a function of pt
#         pt            matched eff      resummed eff     fixed-order eff
   2.00000000E+001   4.84558832E-001   5.18387736E-001   5.29433236E-001
   2.50000000E+001   5.74309153E-001   6.01249644E-001   6.05818211E-001
   3.00000000E+001   6.44461151E-001   6.60440440E-001   6.64452408E-001
   3.50000000E+001   6.99848040E-001   7.02224505E-001   7.11123136E-001
   4.00000000E+001   7.43659073E-001   7.31202198E-001   7.48917608E-001
   4.50000000E+001   7.78710233E-001   7.50821288E-001   7.80175121E-001
   5.00000000E+001   8.07054947E-001   7.63730580E-001   8.06390774E-001
   5.50000000E+001   8.30198320E-001   7.71980526E-001   8.28537610E-001
   6.00000000E+001   8.49527336E-001   7.77125880E-001   8.47561956E-001
   6.50000000E+001   8.65880444E-001   7.80287421E-001   8.63977779E-001
   7.00000000E+001   8.79873004E-001   7.82223660E-001   8.78193766E-001
   7.50000000E+001   8.91985991E-001   7.83419157E-001   8.90574977E-001
   8.00000000E+001   9.02652231E-001   7.84170151E-001   9.01497366E-001
   8.50000000E+001   9.11982936E-001   7.84652901E-001   9.11050345E-001
   9.00000000E+001   9.20322332E-001   7.84971382E-001   9.19573396E-001
   9.50000000E+001   9.27683764E-001   7.85187125E-001   9.27082751E-001
   1.00000000E+002   9.34254665E-001   7.85337034E-001   9.33771248E-001
   1.05000000E+002   9.40164808E-001   7.85443677E-001   9.39774369E-001
   1.10000000E+002   9.45391584E-001   7.85521174E-001   9.45074658E-001
   1.15000000E+002   9.50143328E-001   7.85578572E-001   9.49884601E-001
   1.20000000E+002   9.54357810E-001   7.85621809E-001   9.54145364E-001
   1.25000000E+002   9.58227262E-001   7.85654872E-001   9.58051762E-001
   1.30000000E+002   9.61710824E-001   7.85680495E-001   9.61564997E-001
   1.35000000E+002   9.64879441E-001   7.85700592E-001   9.64757578E-001
   1.40000000E+002   9.67733318E-001   7.85716526E-001   9.67630916E-001
   1.45000000E+002   9.70366893E-001   7.85729281E-001   9.70280390E-001
   1.50000000E+002   9.72729251E-001   7.85739582E-001   9.72655808E-001
   1.55000000E+002   9.74916174E-001   7.85747970E-001   9.74853517E-001
   1.60000000E+002   9.76890493E-001   7.85754849E-001   9.76836796E-001
   1.65000000E+002   9.78701762E-001   7.85760530E-001   9.78655541E-001
   1.70000000E+002   9.80361302E-001   7.85765251E-001   9.80321351E-001
   1.75000000E+002   9.81865779E-001   7.85769197E-001   9.81831112E-001
   1.80000000E+002   9.83248850E-001   7.85772514E-001   9.83218654E-001
   1.85000000E+002   9.84516546E-001   7.85775316E-001   9.84490151E-001
   1.90000000E+002   9.85682426E-001   7.85777694E-001   9.85659275E-001
   1.95000000E+002   9.86769431E-001   7.85779723E-001   9.86749058E-001
   2.00000000E+002   9.87756584E-001   7.85781459E-001   9.87738601E-001
   2.05000000E+002   9.88672675E-001   7.85782953E-001   9.88656754E-001
   2.10000000E+002   9.89510988E-001   7.85784241E-001   9.89496854E-001
   2.15000000E+002   9.90268632E-001   7.85785358E-001   9.90256049E-001
   2.20000000E+002   9.90981399E-001   7.85786328E-001   9.90970169E-001
   2.25000000E+002   9.91634675E-001   7.85787174E-001   9.91624627E-001
   2.30000000E+002   9.92237284E-001   7.85787914E-001   9.92228272E-001
   2.35000000E+002   9.92799103E-001   7.85788563E-001   9.92791002E-001
   2.40000000E+002   9.93306762E-001   7.85789134E-001   9.93299464E-001
   2.45000000E+002   9.93787230E-001   7.85789638E-001   9.93780642E-001
