# ./jetvheto -in n3lo-fixed-order/H125-LHC13-R04-mb-0-mt-1725-xmur050-xmuf100-log.fxd -xQ 0.5 -out benchmarks-n3lo-smallR/H125-LHC13-R04-mb-0-mt-1725-xmur050-xmuf100-xQ050-N3LO+NNLLa.R0-2.0.res -scheme a -order 2 -ptmax 500.01 -small-r -fixed_order 3 -loop-mass t -R0 2.0
# process = H    
# collider = pp   
# rts =  13000.000
# M   =    125.000
# muR =     62.500
# muF =    125.000
# Q   =     62.500
# p   =      5.000
# include_c1_squared =   F
# loop_mass  = t   
# alphas(MZ) =    0.11800
# alphas(M) =    0.11264
# alphas(muR) =    0.12516
# Rjet =      0.400
# order = NNLL
# pdf name and set = PDF4LHC15_nnlo_mc.LHgrid,    0
# matching scheme = a
# total cross sections [nb] at LO, NLOdiff, NNLOdiff, N3LOdiff =     0.016868    0.020591    0.008553    0.000949
#----------------------------------------------------------------------
# the lines that follow give the jet-veto efficiencies as a function of pt
#         pt            matched eff      resummed eff     fixed-order eff
   2.00000000E+001   4.81864587E-001   5.28302685E-001   4.55384304E-001
   2.50000000E+001   5.62258269E-001   6.00829325E-001   5.40568007E-001
   3.00000000E+001   6.31928061E-001   6.51294375E-001   6.15061825E-001
   3.50000000E+001   6.85458804E-001   6.85960830E-001   6.71924624E-001
   4.00000000E+001   7.28607970E-001   7.09260364E-001   7.17776886E-001
   4.50000000E+001   7.63314037E-001   7.24439686E-001   7.54726893E-001
   5.00000000E+001   7.92973342E-001   7.33948321E-001   7.86256196E-001
   5.50000000E+001   8.18558388E-001   7.39646531E-001   8.13360155E-001
   6.00000000E+001   8.39981221E-001   7.42912039E-001   8.35982829E-001
   6.50000000E+001   8.59602710E-001   7.44708034E-001   8.56539019E-001
   7.00000000E+001   8.75982180E-001   7.45660710E-001   8.73636697E-001
   7.50000000E+001   8.89279925E-001   7.46149790E-001   8.87481736E-001
   8.00000000E+001   9.01041940E-001   7.46392405E-001   8.99656735E-001
   8.50000000E+001   9.11928741E-001   7.46507227E-001   9.10854774E-001
   9.00000000E+001   9.21016795E-001   7.46557258E-001   9.20178063E-001
   9.50000000E+001   9.29563059E-001   7.46575244E-001   9.28902629E-001
   1.00000000E+002   9.36462132E-001   7.46577956E-001   9.35938367E-001
   1.05000000E+002   9.42688065E-001   7.46573868E-001   9.42269256E-001
   1.10000000E+002   9.48353060E-001   7.46567185E-001   9.48015510E-001
   1.15000000E+002   9.53426432E-001   7.46559929E-001   9.53152280E-001
   1.20000000E+002   9.57769694E-001   7.46553021E-001   9.57545500E-001
   1.25000000E+002   9.61432012E-001   7.46546825E-001   9.61247428E-001
   1.30000000E+002   9.65356791E-001   7.46541441E-001   9.65203712E-001
   1.35000000E+002   9.68724206E-001   7.46536840E-001   9.68596472E-001
   1.40000000E+002   9.71450357E-001   7.46532946E-001   9.71343224E-001
   1.45000000E+002   9.74116772E-001   7.46529666E-001   9.74026360E-001
   1.50000000E+002   9.76303558E-001   7.46526908E-001   9.76226901E-001
   1.55000000E+002   9.78896014E-001   7.46524588E-001   9.78830644E-001
   1.60000000E+002   9.80331721E-001   7.46522635E-001   9.80275773E-001
   1.65000000E+002   9.82085467E-001   7.46520987E-001   9.82037344E-001
   1.70000000E+002   9.83567134E-001   7.46519594E-001   9.83525568E-001
   1.75000000E+002   9.85084615E-001   7.46518412E-001   9.85048566E-001
   1.80000000E+002   9.86468174E-001   7.46517406E-001   9.86436787E-001
   1.85000000E+002   9.87704527E-001   7.46516547E-001   9.87677104E-001
   1.90000000E+002   9.88390096E-001   7.46515812E-001   9.88366066E-001
   1.95000000E+002   9.89535614E-001   7.46515181E-001   9.89514472E-001
   2.00000000E+002   9.90469207E-001   7.46514637E-001   9.90450552E-001
   2.05000000E+002   9.91226334E-001   7.46514166E-001   9.91209825E-001
   2.10000000E+002   9.91899021E-001   7.46513758E-001   9.91884371E-001
   2.15000000E+002   9.92750255E-001   7.46513404E-001   9.92737216E-001
   2.20000000E+002   9.93263123E-001   7.46513094E-001   9.93251490E-001
   2.25000000E+002   9.93866727E-001   7.46512824E-001   9.93856322E-001
   2.30000000E+002   9.94432093E-001   7.46512587E-001   9.94422764E-001
   2.35000000E+002   9.94949708E-001   7.46512378E-001   9.94941324E-001
   2.40000000E+002   9.95223456E-001   7.46512194E-001   9.95215907E-001
   2.45000000E+002   9.95718204E-001   7.46512031E-001   9.95711389E-001
