# ./jetvheto -in n3lo-fixed-order/H125-LHC13-R04-heft-xmur050-xmuf050-log.fxd -xQ 0.333 -out benchmarks-n3lo-smallR/H125-LHC13-R04-heft-xmur050-xmuf050-xQ033-N3LO+NNLLb.R0-0.5.res -scheme b -order 2 -ptmax 500.01 -fixed_order 3 -small-r -R0 0.5
# process = H    
# collider = pp   
# rts =  13000.000
# M   =    125.000
# muR =     62.500
# muF =     62.500
# Q   =     41.625
# p   =      5.000
# include_c1_squared =   F
# loop_mass  = none
# alphas(MZ) =    0.11800
# alphas(M) =    0.11264
# alphas(muR) =    0.12516
# Rjet =      0.400
# order = NNLL
# pdf name and set = PDF4LHC15_nnlo_mc.LHgrid,    0
# matching scheme = b
# total cross sections [nb] at LO, NLOdiff, NNLOdiff, N3LOdiff =     0.015055    0.019611    0.008998    0.001413
#----------------------------------------------------------------------
# the lines that follow give the jet-veto efficiencies as a function of pt
#         pt            matched eff      resummed eff     fixed-order eff
   2.00000000E+001   4.41507934E-001   4.84901687E-001   4.32272620E-001
   2.50000000E+001   5.26939268E-001   5.61411825E-001   5.20076688E-001
   3.00000000E+001   5.99612866E-001   6.13297290E-001   5.95188306E-001
   3.50000000E+001   6.57622730E-001   6.46983056E-001   6.54648121E-001
   4.00000000E+001   7.02981604E-001   6.67936960E-001   7.00880952E-001
   4.50000000E+001   7.42753851E-001   6.80583937E-001   7.41355940E-001
   5.00000000E+001   7.74762090E-001   6.88135414E-001   7.73800605E-001
   5.50000000E+001   8.02707337E-001   6.92676025E-001   8.02051238E-001
   6.00000000E+001   8.25637231E-001   6.95457108E-001   8.25176712E-001
   6.50000000E+001   8.46871453E-001   6.97202109E-001   8.46550538E-001
   7.00000000E+001   8.63345653E-001   6.98325586E-001   8.63110860E-001
   7.50000000E+001   8.78067015E-001   6.99067447E-001   8.77894218E-001
   8.00000000E+001   8.91350075E-001   6.99569141E-001   8.91221610E-001
   8.50000000E+001   9.03133598E-001   6.99915978E-001   9.03036791E-001
   9.00000000E+001   9.13556725E-001   7.00160637E-001   9.13482770E-001
   9.50000000E+001   9.21911457E-001   7.00336418E-001   9.21853677E-001
   1.00000000E+002   9.29813439E-001   7.00464840E-001   9.29768082E-001
   1.05000000E+002   9.36147949E-001   7.00560102E-001   9.36111694E-001
   1.10000000E+002   9.41989936E-001   7.00631755E-001   9.41960757E-001
   1.15000000E+002   9.47479798E-001   7.00686339E-001   9.47456202E-001
   1.20000000E+002   9.52433121E-001   7.00728408E-001   9.52413885E-001
   1.25000000E+002   9.56521061E-001   7.00761182E-001   9.56505189E-001
   1.30000000E+002   9.60095404E-001   7.00786969E-001   9.60082213E-001
   1.35000000E+002   9.63669946E-001   7.00807445E-001   9.63658956E-001
   1.40000000E+002   9.66905951E-001   7.00823842E-001   9.66896738E-001
   1.45000000E+002   9.69681038E-001   7.00837077E-001   9.69673261E-001
   1.50000000E+002   9.71849554E-001   7.00847839E-001   9.71842925E-001
   1.55000000E+002   9.74328690E-001   7.00856650E-001   9.74323047E-001
   1.60000000E+002   9.76573754E-001   7.00863911E-001   9.76568926E-001
   1.65000000E+002   9.77948427E-001   7.00869930E-001   9.77944247E-001
   1.70000000E+002   9.79736290E-001   7.00874948E-001   9.79732679E-001
   1.75000000E+002   9.81410856E-001   7.00879155E-001   9.81407724E-001
   1.80000000E+002   9.82701021E-001   7.00882698E-001   9.82698288E-001
   1.85000000E+002   9.83881330E-001   7.00885698E-001   9.83878937E-001
   1.90000000E+002   9.85099466E-001   7.00888248E-001   9.85097366E-001
   1.95000000E+002   9.86222452E-001   7.00890426E-001   9.86220604E-001
   2.00000000E+002   9.87224865E-001   7.00892293E-001   9.87223233E-001
   2.05000000E+002   9.88038102E-001   7.00893900E-001   9.88036656E-001
   2.10000000E+002   9.88862779E-001   7.00895289E-001   9.88861494E-001
   2.15000000E+002   9.89505423E-001   7.00896492E-001   9.89504277E-001
   2.20000000E+002   9.90409103E-001   7.00897539E-001   9.90408081E-001
   2.25000000E+002   9.90903709E-001   7.00898452E-001   9.90902794E-001
   2.30000000E+002   9.91503041E-001   7.00899251E-001   9.91502219E-001
   2.35000000E+002   9.91962008E-001   7.00899952E-001   9.91961268E-001
   2.40000000E+002   9.92454716E-001   7.00900570E-001   9.92454049E-001
   2.45000000E+002   9.93024756E-001   7.00901114E-001   9.93024154E-001
