# ./jetvheto -in n3lo-fixed-order/H125-LHC13-R04-mb-0-mt-1725-xmur100-xmuf100-log.fxd -xQ 0.125 -out benchmarks-n3lo-smallR/H125-LHC13-R04-mb-0-mt-1725-xmur100-xmuf100-xQ125-N3LO+NNLLb.res -scheme b -order 2 -ptmax 500.01 -fixed_order 3 -loop-mass t
# process = H    
# collider = pp   
# rts =  13000.000
# M   =    125.000
# muR =    125.000
# muF =    125.000
# Q   =     15.625
# p   =      5.000
# include_c1_squared =   F
# loop_mass  = t   
# alphas(MZ) =    0.11800
# alphas(M) =    0.11264
# alphas(muR) =    0.11264
# Rjet =      0.400
# order = NNLL
# pdf name and set = PDF4LHC15_nnlo_mc.LHgrid,    0
# matching scheme = b
# total cross sections [nb] at LO, NLOdiff, NNLOdiff, N3LOdiff =     0.013801    0.017514    0.010146    0.003834
#----------------------------------------------------------------------
# the lines that follow give the jet-veto efficiencies as a function of pt
#         pt            matched eff      resummed eff     fixed-order eff
   2.00000000E+001   4.24993343E-001   5.18894989E-001   4.21593782E-001
   2.50000000E+001   5.14949054E-001   5.34717988E-001   5.13960990E-001
   3.00000000E+001   5.91312614E-001   5.39864746E-001   5.91015610E-001
   3.50000000E+001   6.50746945E-001   5.41792142E-001   6.50645918E-001
   4.00000000E+001   6.98873255E-001   5.42612028E-001   6.98836983E-001
   4.50000000E+001   7.37941330E-001   5.42998672E-001   7.37928057E-001
   5.00000000E+001   7.71034687E-001   5.43196683E-001   7.71030473E-001
   5.50000000E+001   7.99276246E-001   5.43305089E-001   7.99275639E-001
   6.00000000E+001   8.23059029E-001   5.43367785E-001   8.23059681E-001
   6.50000000E+001   8.44242622E-001   5.43405743E-001   8.44243758E-001
   7.00000000E+001   8.62069655E-001   5.43429633E-001   8.62070819E-001
   7.50000000E+001   8.76924452E-001   5.43445176E-001   8.76925464E-001
   8.00000000E+001   8.89966295E-001   5.43455584E-001   8.89967148E-001
   8.50000000E+001   9.01727767E-001   5.43462730E-001   9.01728487E-001
   9.00000000E+001   9.11747168E-001   5.43467748E-001   9.11747759E-001
   9.50000000E+001   9.20909122E-001   5.43471341E-001   9.20909613E-001
   1.00000000E+002   9.28579137E-001   5.43473960E-001   9.28579537E-001
   1.05000000E+002   9.35454298E-001   5.43475899E-001   9.35454626E-001
   1.10000000E+002   9.41628397E-001   5.43477355E-001   9.41628668E-001
   1.15000000E+002   9.47176909E-001   5.43478464E-001   9.47177133E-001
   1.20000000E+002   9.51996700E-001   5.43479317E-001   9.51996886E-001
   1.25000000E+002   9.56173779E-001   5.43479982E-001   9.56173934E-001
   1.30000000E+002   9.60356174E-001   5.43480505E-001   9.60356305E-001
   1.35000000E+002   9.64008330E-001   5.43480920E-001   9.64008440E-001
   1.40000000E+002   9.67091902E-001   5.43481252E-001   9.67091995E-001
   1.45000000E+002   9.70034820E-001   5.43481520E-001   9.70034899E-001
   1.50000000E+002   9.72527430E-001   5.43481738E-001   9.72527497E-001
   1.55000000E+002   9.75212397E-001   5.43481916E-001   9.75212455E-001
   1.60000000E+002   9.77041057E-001   5.43482063E-001   9.77041107E-001
   1.65000000E+002   9.78998007E-001   5.43482185E-001   9.78998050E-001
   1.70000000E+002   9.80709559E-001   5.43482286E-001   9.80709596E-001
   1.75000000E+002   9.82370591E-001   5.43482372E-001   9.82370623E-001
   1.80000000E+002   9.83895169E-001   5.43482443E-001   9.83895197E-001
   1.85000000E+002   9.85264498E-001   5.43482504E-001   9.85264523E-001
   1.90000000E+002   9.86225445E-001   5.43482556E-001   9.86225466E-001
   1.95000000E+002   9.87456477E-001   5.43482600E-001   9.87456496E-001
   2.00000000E+002   9.88501089E-001   5.43482637E-001   9.88501106E-001
   2.05000000E+002   9.89399951E-001   5.43482670E-001   9.89399966E-001
   2.10000000E+002   9.90204102E-001   5.43482698E-001   9.90204115E-001
   2.15000000E+002   9.91095707E-001   5.43482722E-001   9.91095719E-001
   2.20000000E+002   9.91741795E-001   5.43482744E-001   9.91741805E-001
   2.25000000E+002   9.92422300E-001   5.43482762E-001   9.92422310E-001
   2.30000000E+002   9.93056593E-001   5.43482778E-001   9.93056602E-001
   2.35000000E+002   9.93643495E-001   5.43482792E-001   9.93643503E-001
   2.40000000E+002   9.94041759E-001   5.43482805E-001   9.94041766E-001
   2.45000000E+002   9.94575387E-001   5.43482816E-001   9.94575393E-001
