# ./jetvheto -in n3lo-fixed-order/H125-LHC13-R04-mb-475-mt-1725-xmur100-xmuf200-log.fxd -xQ 0.5 -out benchmarks-n3lo-smallR/H125-LHC13-R04-mb-475-mt-1725-xmur100-xmuf200-xQ050-N3LO+NNLLb.R0-1.0.res -scheme b -order 2 -ptmax 500.01 -fixed_order 3 -small-r -loop-mass t+b -R0 1.0
# process = H    
# collider = pp   
# rts =  13000.000
# M   =    125.000
# muR =    125.000
# muF =    250.000
# Q   =     62.500
# p   =      5.000
# include_c1_squared =   F
# loop_mass  = t+b 
# alphas(MZ) =    0.11800
# alphas(M) =    0.11264
# alphas(muR) =    0.11264
# Rjet =      0.400
# order = NNLL
# pdf name and set = PDF4LHC15_nnlo_mc.LHgrid,    0
# matching scheme = b
# total cross sections [nb] at LO, NLOdiff, NNLOdiff, N3LOdiff =     0.012791    0.017144    0.009991    0.003297
#----------------------------------------------------------------------
# the lines that follow give the jet-veto efficiencies as a function of pt
#         pt            matched eff      resummed eff     fixed-order eff
   2.00000000E+001   4.27756452E-001   5.16912884E-001   3.98403480E-001
   2.50000000E+001   5.16353730E-001   5.95029597E-001   4.96267892E-001
   3.00000000E+001   5.85903186E-001   6.49793272E-001   5.71031797E-001
   3.50000000E+001   6.44016658E-001   6.87694374E-001   6.32752564E-001
   4.00000000E+001   6.91868029E-001   7.13399384E-001   6.83141463E-001
   4.50000000E+001   7.30306451E-001   7.30341552E-001   7.23442380E-001
   5.00000000E+001   7.64966030E-001   7.41121640E-001   7.59617644E-001
   5.50000000E+001   7.92754892E-001   7.47725280E-001   7.88581283E-001
   6.00000000E+001   8.16610749E-001   7.51628926E-001   8.13375233E-001
   6.50000000E+001   8.36856688E-001   7.53871344E-001   8.34358241E-001
   7.00000000E+001   8.55660524E-001   7.55135825E-001   8.53732779E-001
   7.50000000E+001   8.70954917E-001   7.55843412E-001   8.69466670E-001
   8.00000000E+001   8.84276497E-001   7.56240238E-001   8.83123366E-001
   8.50000000E+001   8.96284998E-001   7.56465040E-001   8.95386863E-001
   9.00000000E+001   9.06423940E-001   7.56594423E-001   9.05719910E-001
   9.50000000E+001   9.16177065E-001   7.56670345E-001   9.15620884E-001
   1.00000000E+002   9.24268651E-001   7.56715879E-001   9.23826352E-001
   1.05000000E+002   9.31338431E-001   7.56743845E-001   9.30983974E-001
   1.10000000E+002   9.37399823E-001   7.56761438E-001   9.37113690E-001
   1.15000000E+002   9.43306169E-001   7.56772772E-001   9.43073389E-001
   1.20000000E+002   9.48690612E-001   7.56780249E-001   9.48499863E-001
   1.25000000E+002   9.53022837E-001   7.56785296E-001   9.52865589E-001
   1.30000000E+002   9.57256402E-001   7.56788778E-001   9.57125883E-001
   1.35000000E+002   9.60789937E-001   7.56791233E-001   9.60680960E-001
   1.40000000E+002   9.64498007E-001   7.56792997E-001   9.64406447E-001
   1.45000000E+002   9.67288336E-001   7.56794289E-001   9.67211040E-001
   1.50000000E+002   9.70126637E-001   7.56795253E-001   9.70061020E-001
   1.55000000E+002   9.72634416E-001   7.56795983E-001   9.72578448E-001
   1.60000000E+002   9.74782370E-001   7.56796545E-001   9.74734409E-001
   1.65000000E+002   9.76608930E-001   7.56796984E-001   9.76567658E-001
   1.70000000E+002   9.78684063E-001   7.56797330E-001   9.78648382E-001
   1.75000000E+002   9.80302554E-001   7.56797607E-001   9.80271594E-001
   1.80000000E+002   9.82172128E-001   7.56797831E-001   9.82145152E-001
   1.85000000E+002   9.83375925E-001   7.56798013E-001   9.83352349E-001
   1.90000000E+002   9.84671485E-001   7.56798164E-001   9.84650805E-001
   1.95000000E+002   9.85805728E-001   7.56798288E-001   9.85787530E-001
   2.00000000E+002   9.87144372E-001   7.56798393E-001   9.87128304E-001
   2.05000000E+002   9.87958655E-001   7.56798481E-001   9.87944432E-001
   2.10000000E+002   9.88748397E-001   7.56798555E-001   9.88735771E-001
   2.15000000E+002   9.89662143E-001   7.56798619E-001   9.89650901E-001
   2.20000000E+002   9.90510957E-001   7.56798673E-001   9.90500922E-001
   2.25000000E+002   9.91124143E-001   7.56798720E-001   9.91115165E-001
   2.30000000E+002   9.91720800E-001   7.56798760E-001   9.91712748E-001
   2.35000000E+002   9.92371120E-001   7.56798795E-001   9.92363881E-001
   2.40000000E+002   9.92932373E-001   7.56798826E-001   9.92925851E-001
   2.45000000E+002   9.93477426E-001   7.56798853E-001   9.93471538E-001
