# ./jetvheto -in n3lo-fixed-order/H125-LHC13-R04-mb-0-mt-1725-xmur050-xmuf100-log.fxd -xQ 0.5 -out benchmarks-n3lo-smallR/H125-LHC13-R04-mb-0-mt-1725-xmur050-xmuf100-xQ050-NNLO+NNLLa.res -scheme a -order 2 -ptmax 500.01 -fixed_order 2 -loop-mass t
# process = H    
# collider = pp   
# rts =  13000.000
# M   =    125.000
# muR =     62.500
# muF =    125.000
# Q   =     62.500
# p   =      5.000
# include_c1_squared =   F
# loop_mass  = t   
# alphas(MZ) =    0.11800
# alphas(M) =    0.11264
# alphas(muR) =    0.12516
# Rjet =      0.400
# order = NNLL
# pdf name and set = PDF4LHC15_nnlo_mc.LHgrid,    0
# matching scheme = a
# total cross sections [nb] at LO, NLOdiff, NNLOdiff, N3LOdiff =     0.016868    0.020591    0.008553    0.000949
#----------------------------------------------------------------------
# the lines that follow give the jet-veto efficiencies as a function of pt
#         pt            matched eff      resummed eff     fixed-order eff
   2.00000000E+001   4.89894636E-001   5.08437351E-001   4.73976153E-001
   2.50000000E+001   5.76432829E-001   5.86219827E-001   5.60164869E-001
   3.00000000E+001   6.43532267E-001   6.40664739E-001   6.27003093E-001
   3.50000000E+001   6.96324761E-001   6.78285241E-001   6.80216456E-001
   4.00000000E+001   7.38453776E-001   7.03754314E-001   7.23510277E-001
   4.50000000E+001   7.72334139E-001   7.20511403E-001   7.59082862E-001
   5.00000000E+001   8.00125494E-001   7.31155018E-001   7.88824462E-001
   5.50000000E+001   8.23191942E-001   7.37660769E-001   8.13863409E-001
   6.00000000E+001   8.42803388E-001   7.41495638E-001   8.35297139E-001
   6.50000000E+001   8.59642873E-001   7.43690908E-001   8.53708674E-001
   7.00000000E+001   8.74167620E-001   7.44923352E-001   8.69526715E-001
   7.50000000E+001   8.86964852E-001   7.45609169E-001   8.83351716E-001
   8.00000000E+001   8.98263658E-001   7.45991127E-001   8.95451407E-001
   8.50000000E+001   9.08176457E-001   7.46205596E-001   9.05981154E-001
   9.00000000E+001   9.17038203E-001   7.46327684E-001   9.15315906E-001
   9.50000000E+001   9.24867840E-001   7.46398398E-001   9.23508029E-001
   1.00000000E+002   9.31875041E-001   7.46440160E-001   9.30793701E-001
   1.05000000E+002   9.38144880E-001   7.46465336E-001   9.37278625E-001
   1.10000000E+002   9.43693017E-001   7.46480835E-001   9.42993970E-001
   1.15000000E+002   9.48738211E-001   7.46490578E-001   9.48169910E-001
   1.20000000E+002   9.53232841E-001   7.46496831E-001   9.52767570E-001
   1.25000000E+002   9.57307530E-001   7.46500925E-001   9.56924018E-001
   1.30000000E+002   9.60987035E-001   7.46503659E-001   9.60668851E-001
   1.35000000E+002   9.64309579E-001   7.46505520E-001   9.64043988E-001
   1.40000000E+002   9.67290379E-001   7.46506809E-001   9.67067374E-001
   1.45000000E+002   9.70052466E-001   7.46507719E-001   9.69864187E-001
   1.50000000E+002   9.72494947E-001   7.46508371E-001   9.72335157E-001
   1.55000000E+002   9.74753690E-001   7.46508847E-001   9.74617398E-001
   1.60000000E+002   9.76821457E-001   7.46509199E-001   9.76704664E-001
   1.65000000E+002   9.78684910E-001   7.46509463E-001   9.78584384E-001
   1.70000000E+002   9.80402140E-001   7.46509664E-001   9.80315252E-001
   1.75000000E+002   9.81937766E-001   7.46509820E-001   9.81862367E-001
   1.80000000E+002   9.83364510E-001   7.46509941E-001   9.83298832E-001
   1.85000000E+002   9.84652926E-001   7.46510037E-001   9.84595510E-001
   1.90000000E+002   9.85847536E-001   7.46510114E-001   9.85797170E-001
   1.95000000E+002   9.86956504E-001   7.46510176E-001   9.86912179E-001
   2.00000000E+002   9.87955372E-001   7.46510226E-001   9.87916243E-001
   2.05000000E+002   9.88889741E-001   7.46510268E-001   9.88855095E-001
   2.10000000E+002   9.89731551E-001   7.46510302E-001   9.89700789E-001
   2.15000000E+002   9.90494089E-001   7.46510331E-001   9.90466701E-001
   2.20000000E+002   9.91214543E-001   7.46510355E-001   9.91190097E-001
   2.25000000E+002   9.91871164E-001   7.46510376E-001   9.91849289E-001
   2.30000000E+002   9.92478499E-001   7.46510393E-001   9.92458878E-001
   2.35000000E+002   9.93051447E-001   7.46510408E-001   9.93033808E-001
   2.40000000E+002   9.93560090E-001   7.46510421E-001   9.93544198E-001
   2.45000000E+002   9.94041155E-001   7.46510432E-001   9.94026807E-001
