# ./jetvheto -in n3lo-fixed-order/H125-LHC13-R04-heft-xmur025-xmuf025-log.fxd -xQ 0.50 -out benchmarks-n3lo-smallR/H125-LHC13-R04-heft-xmur025-xmuf025-xQ050-NNLO+NNLLa.res -scheme a -order 2 -ptmax 500.01 -fixed_order 2
# process = H    
# collider = pp   
# rts =  13000.000
# M   =    125.000
# muR =     31.250
# muF =     31.250
# Q   =     62.500
# p   =      5.000
# include_c1_squared =   F
# loop_mass  = none
# alphas(MZ) =    0.11800
# alphas(M) =    0.11264
# alphas(muR) =    0.14091
# Rjet =      0.400
# order = NNLL
# pdf name and set = PDF4LHC15_nnlo_mc.LHgrid,    0
# matching scheme = a
# total cross sections [nb] at LO, NLOdiff, NNLOdiff, N3LOdiff =     0.017443    0.024066    0.006043   -0.002471
#----------------------------------------------------------------------
# the lines that follow give the jet-veto efficiencies as a function of pt
#         pt            matched eff      resummed eff     fixed-order eff
   2.00000000E+001   4.64205343E-001   4.85981064E-001   4.22450122E-001
   2.50000000E+001   5.48300790E-001   5.58164359E-001   5.11900436E-001
   3.00000000E+001   6.14595606E-001   6.08435052E-001   5.83153040E-001
   3.50000000E+001   6.67909632E-001   6.42986661E-001   6.41162186E-001
   4.00000000E+001   7.11117435E-001   6.66275575E-001   6.88755715E-001
   4.50000000E+001   7.46844893E-001   6.81519262E-001   7.28512618E-001
   5.00000000E+001   7.76591427E-001   6.91132515E-001   7.61836328E-001
   5.50000000E+001   8.01862812E-001   6.96954766E-001   7.90187676E-001
   6.00000000E+001   8.23679457E-001   7.00345366E-001   8.14558742E-001
   6.50000000E+001   8.42533412E-001   7.02254166E-001   8.35469114E-001
   7.00000000E+001   8.59081893E-001   7.03301449E-001   8.53631908E-001
   7.50000000E+001   8.73470174E-001   7.03866232E-001   8.69264939E-001
   8.00000000E+001   8.86333774E-001   7.04167829E-001   8.83079293E-001
   8.50000000E+001   8.97711187E-001   7.04327923E-001   8.95179059E-001
   9.00000000E+001   9.07794358E-001   7.04412444E-001   9.05811087E-001
   9.50000000E+001   9.16688340E-001   7.04456663E-001   9.15123208E-001
   1.00000000E+002   9.24670259E-001   7.04479371E-001   9.23425441E-001
   1.05000000E+002   9.31812484E-001   7.04490598E-001   9.30814627E-001
   1.10000000E+002   9.38221358E-001   7.04495716E-001   9.37415212E-001
   1.15000000E+002   9.43975090E-001   7.04497620E-001   9.43318963E-001
   1.20000000E+002   9.49105305E-001   7.04497873E-001   9.48567413E-001
   1.25000000E+002   9.53637115E-001   7.04497319E-001   9.53193121E-001
   1.30000000E+002   9.57797236E-001   7.04496413E-001   9.57428358E-001
   1.35000000E+002   9.61557009E-001   7.04495393E-001   9.61248660E-001
   1.40000000E+002   9.64901005E-001   7.04494383E-001   9.64641750E-001
   1.45000000E+002   9.67980027E-001   7.04493441E-001   9.67760842E-001
   1.50000000E+002   9.70714413E-001   7.04492591E-001   9.70528143E-001
   1.55000000E+002   9.73201494E-001   7.04491839E-001   9.73042414E-001
   1.60000000E+002   9.75477338E-001   7.04491180E-001   9.75340850E-001
   1.65000000E+002   9.77558926E-001   7.04490608E-001   9.77441308E-001
   1.70000000E+002   9.79424019E-001   7.04490112E-001   9.79322235E-001
   1.75000000E+002   9.81146987E-001   7.04489684E-001   9.81058560E-001
   1.80000000E+002   9.82703362E-001   7.04489314E-001   9.82626252E-001
   1.85000000E+002   9.84088320E-001   7.04488994E-001   9.84020840E-001
   1.90000000E+002   9.85390342E-001   7.04488717E-001   9.85331088E-001
   1.95000000E+002   9.86584507E-001   7.04488478E-001   9.86532310E-001
   2.00000000E+002   9.87656933E-001   7.04488270E-001   9.87610811E-001
   2.05000000E+002   9.88668983E-001   7.04488089E-001   9.88628109E-001
   2.10000000E+002   9.89606992E-001   7.04487931E-001   9.89570667E-001
   2.15000000E+002   9.90432475E-001   7.04487793E-001   9.90400107E-001
   2.20000000E+002   9.91223281E-001   7.04487673E-001   9.91194365E-001
   2.25000000E+002   9.91947529E-001   7.04487567E-001   9.91921635E-001
   2.30000000E+002   9.92590062E-001   7.04487474E-001   9.92566818E-001
   2.35000000E+002   9.93198868E-001   7.04487392E-001   9.93177956E-001
   2.40000000E+002   9.93749946E-001   7.04487319E-001   9.93731092E-001
   2.45000000E+002   9.94267068E-001   7.04487255E-001   9.94250034E-001
