# ./jetvheto -in n3lo-fixed-order/H125-LHC13-R04-mb-475-mt-1725-xmur050-xmuf025-log.fxd -xQ 0.25 -out benchmarks-n3lo-smallR/H125-LHC13-R04-mb-475-mt-1725-xmur050-xmuf025-xQ025-NNLO+NNLLa.R0-2.0.res -scheme a -order 2 -ptmax 500.01 -fixed_order 2 -small-r -loop-mass t+b -R0 2.0
# process = H    
# collider = pp   
# rts =  13000.000
# M   =    125.000
# muR =     62.500
# muF =     31.250
# Q   =     31.250
# p   =      5.000
# include_c1_squared =   F
# loop_mass  = t+b 
# alphas(MZ) =    0.11800
# alphas(M) =    0.11264
# alphas(muR) =    0.12516
# Rjet =      0.400
# order = NNLL
# pdf name and set = PDF4LHC15_nnlo_mc.LHgrid,    0
# matching scheme = a
# total cross sections [nb] at LO, NLOdiff, NNLOdiff, N3LOdiff =     0.012926    0.020318    0.009723    0.001827
#----------------------------------------------------------------------
# the lines that follow give the jet-veto efficiencies as a function of pt
#         pt            matched eff      resummed eff     fixed-order eff
   2.00000000E+001   4.39931143E-001   4.65118140E-001   4.49376256E-001
   2.50000000E+001   5.26888992E-001   5.32028352E-001   5.34025121E-001
   3.00000000E+001   5.96006208E-001   5.71958388E-001   6.00744622E-001
   3.50000000E+001   6.52004372E-001   5.93911677E-001   6.55033276E-001
   4.00000000E+001   6.97791935E-001   6.05517438E-001   6.99725943E-001
   4.50000000E+001   7.35842685E-001   6.11673968E-001   7.37098941E-001
   5.00000000E+001   7.67847067E-001   6.15034698E-001   7.68680039E-001
   5.50000000E+001   7.94936691E-001   6.16941216E-001   7.95502115E-001
   6.00000000E+001   8.18180050E-001   6.18066729E-001   8.18572628E-001
   6.50000000E+001   8.38264192E-001   6.18756614E-001   8.38542465E-001
   7.00000000E+001   8.55842455E-001   6.19194146E-001   8.56043590E-001
   7.50000000E+001   8.70974446E-001   6.19480219E-001   8.71122230E-001
   8.00000000E+001   8.84413707E-001   6.19672403E-001   8.84524140E-001
   8.50000000E+001   8.96292946E-001   6.19804664E-001   8.96376665E-001
   9.00000000E+001   9.06760545E-001   6.19897666E-001   9.06824852E-001
   9.50000000E+001   9.15943264E-001   6.19964334E-001   9.15993237E-001
   1.00000000E+002   9.24133290E-001   6.20012961E-001   9.24172569E-001
   1.05000000E+002   9.31503587E-001   6.20048988E-001   9.31534780E-001
   1.10000000E+002   9.38051893E-001   6.20076063E-001   9.38076899E-001
   1.15000000E+002   9.43967152E-001   6.20096673E-001   9.43987376E-001
   1.20000000E+002   9.49305378E-001   6.20112550E-001   9.49321865E-001
   1.25000000E+002   9.54063552E-001   6.20124914E-001   9.54077090E-001
   1.30000000E+002   9.58376804E-001   6.20134639E-001   9.58388001E-001
   1.35000000E+002   9.62258563E-001   6.20142359E-001   9.62267886E-001
   1.40000000E+002   9.65756528E-001   6.20148540E-001   9.65764337E-001
   1.45000000E+002   9.68989446E-001   6.20153529E-001   9.68996025E-001
   1.50000000E+002   9.71891302E-001   6.20157584E-001   9.71896874E-001
   1.55000000E+002   9.74529751E-001   6.20160904E-001   9.74534494E-001
   1.60000000E+002   9.76946081E-001   6.20163640E-001   9.76950138E-001
   1.65000000E+002   9.79132778E-001   6.20165908E-001   9.79136265E-001
   1.70000000E+002   9.81114070E-001   6.20167798E-001   9.81117078E-001
   1.75000000E+002   9.82917683E-001   6.20169383E-001   9.82920289E-001
   1.80000000E+002   9.84555037E-001   6.20170718E-001   9.84557304E-001
   1.85000000E+002   9.86041085E-001   6.20171848E-001   9.86043063E-001
   1.90000000E+002   9.87421298E-001   6.20172808E-001   9.87423030E-001
   1.95000000E+002   9.88685587E-001   6.20173628E-001   9.88687110E-001
   2.00000000E+002   9.89833717E-001   6.20174332E-001   9.89835060E-001
   2.05000000E+002   9.90895255E-001   6.20174937E-001   9.90896442E-001
   2.10000000E+002   9.91867327E-001   6.20175460E-001   9.91868380E-001
   2.15000000E+002   9.92724902E-001   6.20175913E-001   9.92725838E-001
   2.20000000E+002   9.93536102E-001   6.20176307E-001   9.93536937E-001
   2.25000000E+002   9.94273307E-001   6.20176651E-001   9.94274053E-001
   2.30000000E+002   9.94936845E-001   6.20176952E-001   9.94937514E-001
   2.35000000E+002   9.95556616E-001   6.20177216E-001   9.95557216E-001
   2.40000000E+002   9.96106897E-001   6.20177449E-001   9.96107437E-001
   2.45000000E+002   9.96609788E-001   6.20177654E-001   9.96610275E-001
