# ./jetvheto -in n3lo-fixed-order/H125-LHC13-R04-mb-475-mt-1725-xmur200-xmuf200-log.fxd -xQ 0.5 -out benchmarks-n3lo-smallR/H125-LHC13-R04-mb-475-mt-1725-xmur200-xmuf200-xQ050-NNLO+NNLLb.R0-1.5.res -scheme b -order 2 -ptmax 500.01 -fixed_order 2 -small-r -loop-mass t+b -R0 1.5
# process = H    
# collider = pp   
# rts =  13000.000
# M   =    125.000
# muR =    250.000
# muF =    250.000
# Q   =     62.500
# p   =      5.000
# include_c1_squared =   F
# loop_mass  = t+b 
# alphas(MZ) =    0.11800
# alphas(M) =    0.11264
# alphas(muR) =    0.10244
# Rjet =      0.400
# order = NNLL
# pdf name and set = PDF4LHC15_nnlo_mc.LHgrid,    0
# matching scheme = b
# total cross sections [nb] at LO, NLOdiff, NNLOdiff, N3LOdiff =     0.010658    0.014649    0.010464    0.005358
#----------------------------------------------------------------------
# the lines that follow give the jet-veto efficiencies as a function of pt
#         pt            matched eff      resummed eff     fixed-order eff
   2.00000000E+001   4.14148455E-001   5.34282478E-001   3.42914779E-001
   2.50000000E+001   4.98750652E-001   6.15739916E-001   4.51588865E-001
   3.00000000E+001   5.67508928E-001   6.73273358E-001   5.34323891E-001
   3.50000000E+001   6.24274044E-001   7.13417079E-001   5.99878022E-001
   4.00000000E+001   6.71375200E-001   7.40899790E-001   6.52928428E-001
   4.50000000E+001   7.10792842E-001   7.59220403E-001   6.96647108E-001
   5.00000000E+001   7.44119424E-001   7.71044913E-001   7.33209386E-001
   5.50000000E+001   7.72487049E-001   7.78422324E-001   7.64082718E-001
   6.00000000E+001   7.96791935E-001   7.82888341E-001   7.90335720E-001
   6.50000000E+001   8.17940787E-001   7.85533913E-001   8.12993295E-001
   7.00000000E+001   8.36453590E-001   7.87085320E-001   8.32664659E-001
   7.50000000E+001   8.52668102E-001   7.87996886E-001   8.49760719E-001
   8.00000000E+001   8.67041802E-001   7.88539279E-001   8.64801607E-001
   8.50000000E+001   8.79696910E-001   7.88868731E-001   8.77960638E-001
   9.00000000E+001   8.90945180E-001   7.89074071E-001   8.89590152E-001
   9.50000000E+001   9.00940214E-001   7.89205721E-001   8.99874538E-001
   1.00000000E+002   9.09811623E-001   7.89292605E-001   9.08966811E-001
   1.05000000E+002   9.17843126E-001   7.89351603E-001   9.17167984E-001
   1.10000000E+002   9.25013651E-001   7.89392742E-001   9.24469864E-001
   1.15000000E+002   9.31474362E-001   7.89422135E-001   9.31032989E-001
   1.20000000E+002   9.37272594E-001   7.89443603E-001   9.36911738E-001
   1.25000000E+002   9.42491484E-001   7.89459593E-001   9.42194383E-001
   1.30000000E+002   9.47209572E-001   7.89471713E-001   9.46963336E-001
   1.35000000E+002   9.51512080E-001   7.89481043E-001   9.51306719E-001
   1.40000000E+002   9.55404427E-001   7.89488324E-001   9.55232133E-001
   1.45000000E+002   9.58932649E-001   7.89494077E-001   9.58787286E-001
   1.50000000E+002   9.62158871E-001   7.89498673E-001   9.62035576E-001
   1.55000000E+002   9.65090637E-001   7.89502380E-001   9.64985533E-001
   1.60000000E+002   9.67785974E-001   7.89505397E-001   9.67695956E-001
   1.65000000E+002   9.70248017E-001   7.89507872E-001   9.70170571E-001
   1.70000000E+002   9.72491461E-001   7.89509917E-001   9.72424549E-001
   1.75000000E+002   9.74513530E-001   7.89511619E-001   9.74455487E-001
   1.80000000E+002   9.76405255E-001   7.89513044E-001   9.76354712E-001
   1.85000000E+002   9.78141738E-001   7.89514243E-001   9.78097567E-001
   1.90000000E+002   9.79711251E-001   7.89515258E-001   9.79672515E-001
   1.95000000E+002   9.81166629E-001   7.89516122E-001   9.81132549E-001
   2.00000000E+002   9.82493150E-001   7.89516860E-001   9.82463071E-001
   2.05000000E+002   9.83726445E-001   7.89517493E-001   9.83699819E-001
   2.10000000E+002   9.84866049E-001   7.89518039E-001   9.84842413E-001
   2.15000000E+002   9.85915751E-001   7.89518511E-001   9.85894711E-001
   2.20000000E+002   9.86881202E-001   7.89518920E-001   9.86862425E-001
   2.25000000E+002   9.87766694E-001   7.89519277E-001   9.87749895E-001
   2.30000000E+002   9.88599041E-001   7.89519589E-001   9.88583976E-001
   2.35000000E+002   9.89375561E-001   7.89519862E-001   9.89362019E-001
   2.40000000E+002   9.90062475E-001   7.89520103E-001   9.90050275E-001
   2.45000000E+002   9.90720580E-001   7.89520314E-001   9.90709568E-001
