# ./jetvheto -in n3lo-fixed-order/H125-LHC13-R04-mb-0-mt-1725-xmur050-xmuf050-log.fxd -xQ 0.5 -out benchmarks-n3lo-smallR/H125-LHC13-R04-mb-0-mt-1725-xmur050-xmuf050-xQ050-NNLO+NNLLb.R0-1.0.res -scheme b -order 2 -ptmax 500.01 -small-r -fixed_order 2 -loop-mass t -R0 1.0
# process = H    
# collider = pp   
# rts =  13000.000
# M   =    125.000
# muR =     62.500
# muF =     62.500
# Q   =     62.500
# p   =      5.000
# include_c1_squared =   F
# loop_mass  = t   
# alphas(MZ) =    0.11800
# alphas(M) =    0.11264
# alphas(muR) =    0.12516
# Rjet =      0.400
# order = NNLL
# pdf name and set = PDF4LHC15_nnlo_mc.LHgrid,    0
# matching scheme = b
# total cross sections [nb] at LO, NLOdiff, NNLOdiff, N3LOdiff =     0.015885    0.020561    0.008998    0.001413
#----------------------------------------------------------------------
# the lines that follow give the jet-veto efficiencies as a function of pt
#         pt            matched eff      resummed eff     fixed-order eff
   2.00000000E+001   4.30612831E-001   5.02926237E-001   3.37968833E-001
   2.50000000E+001   5.13558843E-001   5.80998431E-001   4.45490403E-001
   3.00000000E+001   5.80287514E-001   6.36110805E-001   5.29094091E-001
   3.50000000E+001   6.34855277E-001   6.74545852E-001   5.95850260E-001
   4.00000000E+001   6.79965600E-001   7.00857673E-001   6.50115846E-001
   4.50000000E+001   7.17756624E-001   7.18396492E-001   6.94939270E-001
   5.00000000E+001   7.50150000E-001   7.29716189E-001   7.32769177E-001
   5.50000000E+001   7.77535548E-001   7.36781275E-001   7.64361916E-001
   6.00000000E+001   8.01426845E-001   7.41063409E-001   7.91465371E-001
   6.50000000E+001   8.22367490E-001   7.43604393E-001   8.14838120E-001
   7.00000000E+001   8.40780688E-001   7.45097700E-001   8.35078651E-001
   7.50000000E+001   8.56908573E-001   7.45977447E-001   8.52570605E-001
   8.00000000E+001   8.71258666E-001   7.46502507E-001   8.67937405E-001
   8.50000000E+001   8.84040476E-001   7.46822394E-001   8.81478135E-001
   9.00000000E+001   8.95405098E-001   7.47022440E-001   8.93411828E-001
   9.50000000E+001   9.05432123E-001   7.47151176E-001   9.03868009E-001
   1.00000000E+002   9.14504234E-001   7.47236460E-001   9.13265993E-001
   1.05000000E+002   9.22477944E-001   7.47294566E-001   9.21489390E-001
   1.10000000E+002   9.29643582E-001   7.47335211E-001   9.28847842E-001
   1.15000000E+002   9.36096964E-001   7.47364332E-001   9.35451292E-001
   1.20000000E+002   9.41921361E-001   7.47385655E-001   9.41393487E-001
   1.25000000E+002   9.47225137E-001   7.47401571E-001   9.46790455E-001
   1.30000000E+002   9.51916663E-001   7.47413658E-001   9.51556334E-001
   1.35000000E+002   9.56162612E-001   7.47422978E-001   9.55862035E-001
   1.40000000E+002   9.60040964E-001   7.47430261E-001   9.59788706E-001
   1.45000000E+002   9.63569878E-001   7.47436023E-001   9.63356960E-001
   1.50000000E+002   9.66804408E-001   7.47440629E-001   9.66623739E-001
   1.55000000E+002   9.69713548E-001   7.47444349E-001   9.69559478E-001
   1.60000000E+002   9.72360163E-001   7.47447377E-001   9.72228153E-001
   1.65000000E+002   9.74752825E-001   7.47449864E-001   9.74639208E-001
   1.70000000E+002   9.76955281E-001   7.47451920E-001   9.76857081E-001
   1.75000000E+002   9.78954870E-001   7.47453631E-001   9.78869658E-001
   1.80000000E+002   9.80756688E-001   7.47455064E-001   9.80682463E-001
   1.85000000E+002   9.82426619E-001   7.47456271E-001   9.82361728E-001
   1.90000000E+002   9.83953754E-001   7.47457293E-001   9.83896830E-001
   1.95000000E+002   9.85347072E-001   7.47458163E-001   9.85296972E-001
   2.00000000E+002   9.86622588E-001   7.47458906E-001   9.86578358E-001
   2.05000000E+002   9.87791832E-001   7.47459543E-001   9.87752669E-001
   2.10000000E+002   9.88839225E-001   7.47460093E-001   9.88804449E-001
   2.15000000E+002   9.89830891E-001   7.47460568E-001   9.89799927E-001
   2.20000000E+002   9.90737081E-001   7.47460981E-001   9.90709441E-001
   2.25000000E+002   9.91541781E-001   7.47461341E-001   9.91517046E-001
   2.30000000E+002   9.92332689E-001   7.47461655E-001   9.92310501E-001
   2.35000000E+002   9.93012833E-001   7.47461930E-001   9.92992886E-001
   2.40000000E+002   9.93656175E-001   7.47462173E-001   9.93638203E-001
   2.45000000E+002   9.94244594E-001   7.47462386E-001   9.94228366E-001
