# ./jetvheto -in n3lo-fixed-order/H125-LHC13-R04-mb-475-mt-1725-xmur050-xmuf050-log.fxd -xQ 0.125 -out benchmarks-n3lo-smallR/H125-LHC13-R04-mb-475-mt-1725-xmur050-xmuf050-xQ125-NNLO+NNLLa.R0-2.0.res -scheme a -order 2 -ptmax 500.01 -fixed_order 2 -small-r -loop-mass t+b -R0 2.0
# process = H    
# collider = pp   
# rts =  13000.000
# M   =    125.000
# muR =     62.500
# muF =     62.500
# Q   =     15.625
# p   =      5.000
# include_c1_squared =   F
# loop_mass  = t+b 
# alphas(MZ) =    0.11800
# alphas(M) =    0.11264
# alphas(muR) =    0.12516
# Rjet =      0.400
# order = NNLL
# pdf name and set = PDF4LHC15_nnlo_mc.LHgrid,    0
# matching scheme = a
# total cross sections [nb] at LO, NLOdiff, NNLOdiff, N3LOdiff =     0.014147    0.020254    0.008998    0.001413
#----------------------------------------------------------------------
# the lines that follow give the jet-veto efficiencies as a function of pt
#         pt            matched eff      resummed eff     fixed-order eff
   2.00000000E+001   4.50733715E-001   4.21944538E-001   4.51585809E-001
   2.50000000E+001   5.37072980E-001   4.35702704E-001   5.37845647E-001
   3.00000000E+001   6.05127975E-001   4.40186297E-001   6.05618957E-001
   3.50000000E+001   6.59806266E-001   4.41866421E-001   6.60103954E-001
   4.00000000E+001   7.04440350E-001   4.42581297E-001   7.04623301E-001
   4.50000000E+001   7.41710649E-001   4.42918458E-001   7.41826274E-001
   5.00000000E+001   7.73077952E-001   4.43091137E-001   7.73153273E-001
   5.50000000E+001   7.99649833E-001   4.43185677E-001   7.99700298E-001
   6.00000000E+001   8.22418908E-001   4.43240354E-001   8.22453602E-001
   6.50000000E+001   8.42039166E-001   4.43273457E-001   8.42063586E-001
   7.00000000E+001   8.59159793E-001   4.43294292E-001   8.59177351E-001
   7.50000000E+001   8.73973185E-001   4.43307847E-001   8.73986041E-001
   8.00000000E+001   8.87021714E-001   4.43316924E-001   8.87031290E-001
   8.50000000E+001   8.98554450E-001   4.43323157E-001   8.98561694E-001
   9.00000000E+001   9.08670701E-001   4.43327533E-001   9.08676257E-001
   9.50000000E+001   9.17582735E-001   4.43330666E-001   9.17587048E-001
   1.00000000E+002   9.25556264E-001   4.43332950E-001   9.25559652E-001
   1.05000000E+002   9.32639218E-001   4.43334641E-001   9.32641906E-001
   1.10000000E+002   9.38937213E-001   4.43335912E-001   9.38939368E-001
   1.15000000E+002   9.44609869E-001   4.43336878E-001   9.44611611E-001
   1.20000000E+002   9.49684548E-001   4.43337623E-001   9.49685968E-001
   1.25000000E+002   9.54295542E-001   4.43338202E-001   9.54296709E-001
   1.30000000E+002   9.58394357E-001   4.43338658E-001   9.58395322E-001
   1.35000000E+002   9.62104198E-001   4.43339020E-001   9.62105002E-001
   1.40000000E+002   9.65481710E-001   4.43339310E-001   9.65482383E-001
   1.45000000E+002   9.68523840E-001   4.43339544E-001   9.68524408E-001
   1.50000000E+002   9.71309901E-001   4.43339734E-001   9.71310382E-001
   1.55000000E+002   9.73831311E-001   4.43339889E-001   9.73831721E-001
   1.60000000E+002   9.76118643E-001   4.43340017E-001   9.76118993E-001
   1.65000000E+002   9.78185590E-001   4.43340124E-001   9.78185892E-001
   1.70000000E+002   9.80069792E-001   4.43340212E-001   9.80070053E-001
   1.75000000E+002   9.81814686E-001   4.43340286E-001   9.81814911E-001
   1.80000000E+002   9.83374609E-001   4.43340349E-001   9.83374805E-001
   1.85000000E+002   9.84824339E-001   4.43340402E-001   9.84824510E-001
   1.90000000E+002   9.86144985E-001   4.43340447E-001   9.86145135E-001
   1.95000000E+002   9.87347219E-001   4.43340485E-001   9.87347351E-001
   2.00000000E+002   9.88443447E-001   4.43340518E-001   9.88443563E-001
   2.05000000E+002   9.89455296E-001   4.43340547E-001   9.89455399E-001
   2.10000000E+002   9.90358626E-001   4.43340571E-001   9.90358717E-001
   2.15000000E+002   9.91216870E-001   4.43340592E-001   9.91216951E-001
   2.20000000E+002   9.92004411E-001   4.43340611E-001   9.92004483E-001
   2.25000000E+002   9.92696873E-001   4.43340627E-001   9.92696938E-001
   2.30000000E+002   9.93373576E-001   4.43340641E-001   9.93373635E-001
   2.35000000E+002   9.93963630E-001   4.43340653E-001   9.93963683E-001
   2.40000000E+002   9.94516772E-001   4.43340664E-001   9.94516819E-001
   2.45000000E+002   9.95015600E-001   4.43340674E-001   9.95015643E-001
