# ./jetvheto -in n3lo-fixed-order/H125-LHC13-R04-mb-0-mt-1725-xmur025-xmuf025-log.fxd -xQ 0.25 -out benchmarks-n3lo-smallR/H125-LHC13-R04-mb-0-mt-1725-xmur025-xmuf025-xQ025-N3LO+NNLLb.R0-1.5.res -scheme b -order 2 -ptmax 500.01 -small-r -fixed_order 3 -loop-mass t -R0 1.5
# process = H    
# collider = pp   
# rts =  13000.000
# M   =    125.000
# muR =     31.250
# muF =     31.250
# Q   =     31.250
# p   =      5.000
# include_c1_squared =   F
# loop_mass  = t   
# alphas(MZ) =    0.11800
# alphas(M) =    0.11264
# alphas(muR) =    0.14091
# Rjet =      0.400
# order = NNLL
# pdf name and set = PDF4LHC15_nnlo_mc.LHgrid,    0
# matching scheme = b
# total cross sections [nb] at LO, NLOdiff, NNLOdiff, N3LOdiff =     0.018140    0.025356    0.006043   -0.002471
#----------------------------------------------------------------------
# the lines that follow give the jet-veto efficiencies as a function of pt
#         pt            matched eff      resummed eff     fixed-order eff
   2.00000000E+001   4.76989681E-001   4.47173609E-001   4.87197444E-001
   2.50000000E+001   5.67736460E-001   5.09411491E-001   5.72808377E-001
   3.00000000E+001   6.37778581E-001   5.46383329E-001   6.40033654E-001
   3.50000000E+001   6.92767405E-001   5.66648444E-001   6.93667740E-001
   4.00000000E+001   7.37919479E-001   5.77341744E-001   7.38265029E-001
   4.50000000E+001   7.75760858E-001   5.83008134E-001   7.75885549E-001
   5.00000000E+001   8.06936676E-001   5.86099426E-001   8.06967537E-001
   5.50000000E+001   8.34513577E-001   5.87852486E-001   8.34514649E-001
   6.00000000E+001   8.56673033E-001   5.88887195E-001   8.56658691E-001
   6.50000000E+001   8.73514876E-001   5.89521343E-001   8.73491663E-001
   7.00000000E+001   8.90106811E-001   5.89923495E-001   8.90085568E-001
   7.50000000E+001   9.04123900E-001   5.90186423E-001   9.04105497E-001
   8.00000000E+001   9.15241945E-001   5.90363052E-001   9.15225465E-001
   8.50000000E+001   9.25771737E-001   5.90484605E-001   9.25758034E-001
   9.00000000E+001   9.34955100E-001   5.90570076E-001   9.34943752E-001
   9.50000000E+001   9.40862654E-001   5.90631346E-001   9.40852628E-001
   1.00000000E+002   9.48583757E-001   5.90676035E-001   9.48575677E-001
   1.05000000E+002   9.53821117E-001   5.90709144E-001   9.53814240E-001
   1.10000000E+002   9.59778283E-001   5.90734025E-001   9.59772663E-001
   1.15000000E+002   9.64723274E-001   5.90752966E-001   9.64718601E-001
   1.20000000E+002   9.68218404E-001   5.90767557E-001   9.68214412E-001
   1.25000000E+002   9.71136182E-001   5.90778920E-001   9.71132765E-001
   1.30000000E+002   9.74522475E-001   5.90787857E-001   9.74519594E-001
   1.35000000E+002   9.77100985E-001   5.90794951E-001   9.77098521E-001
   1.40000000E+002   9.79641918E-001   5.90800632E-001   9.79639817E-001
   1.45000000E+002   9.81973838E-001   5.90805216E-001   9.81972039E-001
   1.50000000E+002   9.83865571E-001   5.90808943E-001   9.83864021E-001
   1.55000000E+002   9.85620272E-001   5.90811994E-001   9.85618934E-001
   1.60000000E+002   9.87702020E-001   5.90814508E-001   9.87700872E-001
   1.65000000E+002   9.88955557E-001   5.90816592E-001   9.88954556E-001
   1.70000000E+002   9.89883966E-001   5.90818329E-001   9.89883087E-001
   1.75000000E+002   9.91393166E-001   5.90819786E-001   9.91392403E-001
   1.80000000E+002   9.92131638E-001   5.90821012E-001   9.92130965E-001
   1.85000000E+002   9.93252996E-001   5.90822051E-001   9.93252407E-001
   1.90000000E+002   9.93995467E-001   5.90822934E-001   9.93994946E-001
   1.95000000E+002   9.94937852E-001   5.90823687E-001   9.94937393E-001
   2.00000000E+002   9.95433544E-001   5.90824334E-001   9.95433136E-001
   2.05000000E+002   9.95969358E-001   5.90824890E-001   9.95968995E-001
   2.10000000E+002   9.96450821E-001   5.90825370E-001   9.96450497E-001
   2.15000000E+002   9.97142687E-001   5.90825787E-001   9.97142399E-001
   2.20000000E+002   9.97476408E-001   5.90826149E-001   9.97476149E-001
   2.25000000E+002   9.98020932E-001   5.90826465E-001   9.98020700E-001
   2.30000000E+002   9.98314472E-001   5.90826742E-001   9.98314264E-001
   2.35000000E+002   9.98428392E-001   5.90826985E-001   9.98428204E-001
   2.40000000E+002   9.98835861E-001   5.90827198E-001   9.98835691E-001
   2.45000000E+002   9.99142298E-001   5.90827387E-001   9.99142145E-001
