# ./jetvheto -in n3lo-fixed-order/H125-LHC13-R04-mb-0-mt-1725-xmur100-xmuf100-log.fxd -xQ 1.0 -out benchmarks-n3lo-smallR/H125-LHC13-R04-mb-0-mt-1725-xmur100-xmuf100-xQ100-NNLO+NNLLa.R0-0.5.res -scheme a -order 2 -ptmax 500.01 -small-r -fixed_order 2 -loop-mass t -R0 0.5
# process = H    
# collider = pp   
# rts =  13000.000
# M   =    125.000
# muR =    125.000
# muF =    125.000
# Q   =    125.000
# p   =      5.000
# include_c1_squared =   F
# loop_mass  = t   
# alphas(MZ) =    0.11800
# alphas(M) =    0.11264
# alphas(muR) =    0.11264
# Rjet =      0.400
# order = NNLL
# pdf name and set = PDF4LHC15_nnlo_mc.LHgrid,    0
# matching scheme = a
# total cross sections [nb] at LO, NLOdiff, NNLOdiff, N3LOdiff =     0.013801    0.017514    0.010146    0.003834
#----------------------------------------------------------------------
# the lines that follow give the jet-veto efficiencies as a function of pt
#         pt            matched eff      resummed eff     fixed-order eff
   2.00000000E+001   5.28974323E-001   5.84838360E-001   5.12111256E-001
   2.50000000E+001   6.23204997E-001   6.76210602E-001   5.93117916E-001
   3.00000000E+001   6.95872566E-001   7.40692463E-001   6.55183932E-001
   3.50000000E+001   7.52662400E-001   7.85858447E-001   7.04312652E-001
   4.00000000E+001   7.97492274E-001   8.17044495E-001   7.44112204E-001
   4.50000000E+001   8.32950510E-001   8.37979885E-001   7.76741158E-001
   5.00000000E+001   8.61289968E-001   8.51325103E-001   8.03999724E-001
   5.50000000E+001   8.83955214E-001   8.59017359E-001   8.26956486E-001
   6.00000000E+001   9.02246972E-001   8.62480307E-001   8.46582419E-001
   6.50000000E+001   9.16982538E-001   8.62781793E-001   8.63449624E-001
   7.00000000E+001   9.28758999E-001   8.60745086E-001   8.77952928E-001
   7.50000000E+001   9.38332894E-001   8.57013596E-001   8.90657633E-001
   8.00000000E+001   9.46066384E-001   8.52100277E-001   9.01784587E-001
   8.50000000E+001   9.52239788E-001   8.46417814E-001   9.11498483E-001
   9.00000000E+001   9.57269451E-001   8.40300253E-001   9.20097826E-001
   9.50000000E+001   9.61314481E-001   8.34014233E-001   9.27666371E-001
   1.00000000E+002   9.64662369E-001   8.27771093E-001   9.34417045E-001
   1.05000000E+002   9.67449877E-001   8.21732858E-001   9.40434122E-001
   1.10000000E+002   9.69743521E-001   8.16017358E-001   9.45748990E-001
   1.15000000E+002   9.71782357E-001   8.10704563E-001   9.50569353E-001
   1.20000000E+002   9.73546577E-001   8.05840856E-001   9.54867362E-001
   1.25000000E+002   9.75151667E-001   8.01445202E-001   9.58753493E-001
   1.30000000E+002   9.76630361E-001   7.97515092E-001   9.62267892E-001
   1.35000000E+002   9.77989372E-001   7.94032271E-001   9.65429419E-001
   1.40000000E+002   9.79261073E-001   7.90967896E-001   9.68287981E-001
   1.45000000E+002   9.80501130E-001   7.88286877E-001   9.70915959E-001
   1.50000000E+002   9.81633251E-001   7.85951341E-001   9.73259576E-001
   1.55000000E+002   9.82747523E-001   7.83923105E-001   9.75426757E-001
   1.60000000E+002   9.83812703E-001   7.82165411E-001   9.77405590E-001
   1.65000000E+002   9.84810953E-001   7.80644055E-001   9.79196168E-001
   1.70000000E+002   9.85770113E-001   7.79327935E-001   9.80841717E-001
   1.75000000E+002   9.86653845E-001   7.78189266E-001   9.82320552E-001
   1.80000000E+002   9.87509785E-001   7.77203558E-001   9.83692327E-001
   1.85000000E+002   9.88306140E-001   7.76349436E-001   9.84936490E-001
   1.90000000E+002   9.89069632E-001   7.75608386E-001   9.86089030E-001
   1.95000000E+002   9.89796827E-001   7.74964458E-001   9.87154723E-001
   2.00000000E+002   9.90467058E-001   7.74403963E-001   9.88120114E-001
   2.05000000E+002   9.91110909E-001   7.73915185E-001   9.89021653E-001
   2.10000000E+002   9.91700131E-001   7.73488112E-001   9.89836384E-001
   2.15000000E+002   9.92245656E-001   7.73114199E-001   9.90579634E-001
   2.20000000E+002   9.92769547E-001   7.72786148E-001   9.91277142E-001
   2.25000000E+002   9.93254711E-001   7.72497730E-001   9.91915136E-001
   2.30000000E+002   9.93710720E-001   7.72243624E-001   9.92505931E-001
   2.35000000E+002   9.94145876E-001   7.72019277E-001   9.93060180E-001
   2.40000000E+002   9.94537533E-001   7.71820790E-001   9.93557338E-001
   2.45000000E+002   9.94911708E-001   7.71644821E-001   9.94025107E-001
