# ./jetvheto -in n3lo-fixed-order/H125-LHC13-R04-mb-0-mt-1725-xmur100-xmuf050-log.fxd -xQ 0.25 -out benchmarks-n3lo-smallR/H125-LHC13-R04-mb-0-mt-1725-xmur100-xmuf050-xQ025-N3LO+NNLLa.R0-1.0.res -scheme a -order 2 -ptmax 500.01 -small-r -fixed_order 3 -loop-mass t -R0 1.0
# process = H    
# collider = pp   
# rts =  13000.000
# M   =    125.000
# muR =    125.000
# muF =     62.500
# Q   =     31.250
# p   =      5.000
# include_c1_squared =   F
# loop_mass  = t   
# alphas(MZ) =    0.11800
# alphas(M) =    0.11264
# alphas(muR) =    0.11264
# Rjet =      0.400
# order = NNLL
# pdf name and set = PDF4LHC15_nnlo_mc.LHgrid,    0
# matching scheme = a
# total cross sections [nb] at LO, NLOdiff, NNLOdiff, N3LOdiff =     0.012997    0.017347    0.010424    0.004163
#----------------------------------------------------------------------
# the lines that follow give the jet-veto efficiencies as a function of pt
#         pt            matched eff      resummed eff     fixed-order eff
   2.00000000E+001   4.63388345E-001   5.32624874E-001   4.69526017E-001
   2.50000000E+001   5.50033234E-001   6.07267464E-001   5.54239195E-001
   3.00000000E+001   6.20833414E-001   6.51490440E-001   6.23657046E-001
   3.50000000E+001   6.77026736E-001   6.75683030E-001   6.78794579E-001
   4.00000000E+001   7.21209108E-001   6.88432641E-001   7.22284509E-001
   4.50000000E+001   7.58755002E-001   6.95183104E-001   7.59442749E-001
   5.00000000E+001   7.89467624E-001   6.98864062E-001   7.89911987E-001
   5.50000000E+001   8.15505816E-001   7.00950948E-001   8.15803473E-001
   6.00000000E+001   8.37280307E-001   7.02182491E-001   8.37483214E-001
   6.50000000E+001   8.56854092E-001   7.02937199E-001   8.56997603E-001
   7.00000000E+001   8.72633534E-001   7.03415776E-001   8.72735442E-001
   7.50000000E+001   8.86543636E-001   7.03728658E-001   8.86617786E-001
   8.00000000E+001   8.98957227E-001   7.03938840E-001   8.99012317E-001
   8.50000000E+001   9.09938591E-001   7.04083481E-001   9.09980195E-001
   9.00000000E+001   9.19618165E-001   7.04185185E-001   9.19650032E-001
   9.50000000E+001   9.27644430E-001   7.04258090E-001   9.27669005E-001
   1.00000000E+002   9.35123711E-001   7.04311266E-001   9.35142966E-001
   1.05000000E+002   9.41295964E-001   7.04350662E-001   9.41311142E-001
   1.10000000E+002   9.46905654E-001   7.04380268E-001   9.46917758E-001
   1.15000000E+002   9.52105797E-001   7.04402806E-001   9.52115563E-001
   1.20000000E+002   9.56789941E-001   7.04420168E-001   9.56797888E-001
   1.25000000E+002   9.60830379E-001   7.04433688E-001   9.60836881E-001
   1.30000000E+002   9.64352940E-001   7.04444322E-001   9.64358296E-001
   1.35000000E+002   9.67718625E-001   7.04452764E-001   9.67723078E-001
   1.40000000E+002   9.70789522E-001   7.04459523E-001   9.70793249E-001
   1.45000000E+002   9.73511118E-001   7.04464977E-001   9.73514254E-001
   1.50000000E+002   9.75783402E-001   7.04469412E-001   9.75786047E-001
   1.55000000E+002   9.78126676E-001   7.04473043E-001   9.78128929E-001
   1.60000000E+002   9.80238623E-001   7.04476034E-001   9.80240550E-001
   1.65000000E+002   9.81775869E-001   7.04478514E-001   9.81777518E-001
   1.70000000E+002   9.83483859E-001   7.04480581E-001   9.83485281E-001
   1.75000000E+002   9.85048289E-001   7.04482314E-001   9.85049521E-001
   1.80000000E+002   9.86332619E-001   7.04483774E-001   9.86333689E-001
   1.85000000E+002   9.87517330E-001   7.04485009E-001   9.87518263E-001
   1.90000000E+002   9.88673779E-001   7.04486060E-001   9.88674596E-001
   1.95000000E+002   9.89737790E-001   7.04486957E-001   9.89738508E-001
   2.00000000E+002   9.90692521E-001   7.04487726E-001   9.90693154E-001
   2.05000000E+002   9.91495866E-001   7.04488387E-001   9.91496426E-001
   2.10000000E+002   9.92264642E-001   7.04488959E-001   9.92265138E-001
   2.15000000E+002   9.92916711E-001   7.04489455E-001   9.92917151E-001
   2.20000000E+002   9.93688358E-001   7.04489886E-001   9.93688751E-001
   2.25000000E+002   9.94195170E-001   7.04490262E-001   9.94195521E-001
   2.30000000E+002   9.94753653E-001   7.04490591E-001   9.94753968E-001
   2.35000000E+002   9.95194764E-001   7.04490880E-001   9.95195046E-001
   2.40000000E+002   9.95644997E-001   7.04491134E-001   9.95645251E-001
   2.45000000E+002   9.96120240E-001   7.04491358E-001   9.96120469E-001
