# ./jetvheto -in n3lo-fixed-order/H125-LHC13-R04-mb-475-mt-1725-xmur050-xmuf025-log.fxd -xQ 0.25 -out benchmarks-n3lo-smallR/H125-LHC13-R04-mb-475-mt-1725-xmur050-xmuf025-xQ025-NNLO+NNLLb.R0-0.5.res -scheme b -order 2 -ptmax 500.01 -fixed_order 2 -small-r -loop-mass t+b -R0 0.5
# process = H    
# collider = pp   
# rts =  13000.000
# M   =    125.000
# muR =     62.500
# muF =     31.250
# Q   =     31.250
# p   =      5.000
# include_c1_squared =   F
# loop_mass  = t+b 
# alphas(MZ) =    0.11800
# alphas(M) =    0.11264
# alphas(muR) =    0.12516
# Rjet =      0.400
# order = NNLL
# pdf name and set = PDF4LHC15_nnlo_mc.LHgrid,    0
# matching scheme = b
# total cross sections [nb] at LO, NLOdiff, NNLOdiff, N3LOdiff =     0.012926    0.020318    0.009723    0.001827
#----------------------------------------------------------------------
# the lines that follow give the jet-veto efficiencies as a function of pt
#         pt            matched eff      resummed eff     fixed-order eff
   2.00000000E+001   3.45680938E-001   4.61565522E-001   2.88336474E-001
   2.50000000E+001   4.27875813E-001   5.30036384E-001   3.97742417E-001
   3.00000000E+001   4.99287679E-001   5.70885681E-001   4.83975232E-001
   3.50000000E+001   5.61856573E-001   5.93333960E-001   5.54141575E-001
   4.00000000E+001   6.15872984E-001   6.05197213E-001   6.11905414E-001
   4.50000000E+001   6.62324243E-001   6.11488944E-001   6.60208815E-001
   5.00000000E+001   7.02204783E-001   6.14923035E-001   7.01026371E-001
   5.50000000E+001   7.36377942E-001   6.16871025E-001   7.35693044E-001
   6.00000000E+001   7.65925100E-001   6.18020970E-001   7.65510942E-001
   6.50000000E+001   7.91581061E-001   6.18725811E-001   7.91321316E-001
   7.00000000E+001   8.14109185E-001   6.19172821E-001   8.13940958E-001
   7.50000000E+001   8.33542023E-001   6.19465088E-001   8.33429617E-001
   8.00000000E+001   8.50828154E-001   6.19661432E-001   8.50751155E-001
   8.50000000E+001   8.66124187E-001   6.19796555E-001   8.66070164E-001
   9.00000000E+001   8.79612845E-001   6.19891569E-001   8.79574110E-001
   9.50000000E+001   8.91452307E-001   6.19959679E-001   8.91423954E-001
   1.00000000E+002   9.02016592E-001   6.20009358E-001   9.01995478E-001
   1.05000000E+002   9.11526875E-001   6.20046165E-001   9.11510900E-001
   1.10000000E+002   9.19978646E-001   6.20073825E-001   9.19966378E-001
   1.15000000E+002   9.27615026E-001   6.20094881E-001   9.27605481E-001
   1.20000000E+002   9.34507659E-001   6.20111102E-001   9.34500136E-001
   1.25000000E+002   9.40652114E-001   6.20123733E-001   9.40646112E-001
   1.30000000E+002   9.46222662E-001   6.20133668E-001   9.46217827E-001
   1.35000000E+002   9.51236385E-001   6.20141555E-001   9.51232453E-001
   1.40000000E+002   9.55754731E-001   6.20147870E-001   9.55751503E-001
   1.45000000E+002   9.59931027E-001   6.20152966E-001   9.59928357E-001
   1.50000000E+002   9.63679838E-001   6.20157109E-001   9.63677611E-001
   1.55000000E+002   9.67088521E-001   6.20160501E-001   9.67086651E-001
   1.60000000E+002   9.70210374E-001   6.20163296E-001   9.70208793E-001
   1.65000000E+002   9.73035636E-001   6.20165613E-001   9.73034291E-001
   1.70000000E+002   9.75595579E-001   6.20167544E-001   9.75594429E-001
   1.75000000E+002   9.77926010E-001   6.20169163E-001   9.77925021E-001
   1.80000000E+002   9.80041665E-001   6.20170527E-001   9.80040810E-001
   1.85000000E+002   9.81961850E-001   6.20171681E-001   9.81961107E-001
   1.90000000E+002   9.83745318E-001   6.20172663E-001   9.83744670E-001
   1.95000000E+002   9.85379019E-001   6.20173501E-001   9.85378453E-001
   2.00000000E+002   9.86862639E-001   6.20174219E-001   9.86862141E-001
   2.05000000E+002   9.88234383E-001   6.20174837E-001   9.88233944E-001
   2.10000000E+002   9.89490531E-001   6.20175372E-001   9.89490142E-001
   2.15000000E+002   9.90598725E-001   6.20175835E-001   9.90598380E-001
   2.20000000E+002   9.91647006E-001   6.20176237E-001   9.91646698E-001
   2.25000000E+002   9.92599672E-001   6.20176589E-001   9.92599398E-001
   2.30000000E+002   9.93457145E-001   6.20176896E-001   9.93456899E-001
   2.35000000E+002   9.94258065E-001   6.20177166E-001   9.94257844E-001
   2.40000000E+002   9.94969186E-001   6.20177404E-001   9.94968988E-001
   2.45000000E+002   9.95619069E-001   6.20177613E-001   9.95618890E-001
