# python build-Q2-histos.py --mtQ1file ../../JetVHeto/benchmarks-n3lo-smallR/H125-LHC13-R04-mb-0-mt-1725-xmur050-xmuf050-xQ050-NNLO+NNLLa.R0-1.5.res --mtQ2file ../../JetVHeto/benchmarks-n3lo-smallR/H125-LHC13-R04-mb-0-mt-1725-xmur050-xmuf050-xQ0625-NNLO+NNLLa.R0-1.5.res --mtmbQ2file ../../JetVHeto/benchmarks-n3lo-smallR/H125-LHC13-R04-mb-475-mt-1725-xmur050-xmuf050-xQ0625-NNLO+NNLLa.R0-1.5.res
# process = H    
# collider = pp   
# rts =  13000.000
# M   =    125.000
# muR =     62.500
# muF =     62.500
# Q1  =  62.500; Q2  =  7.812
# p   =      5.000
# include_c1_squared =   F
# loop_mass  = t+b 
# alphas(MZ) =    0.11800
# alphas(M) =    0.11264
# alphas(muR) =    0.12516
# Rjet =      0.400
# order = NNLL
# pdf name and set = PDF4LHC15_nnlo_mc.LHgrid,    0
# matching scheme = a
# total cross sections [nb] at LO, NLOdiff, NNLOdiff, N3LOdiff =     0.014147    0.020254    0.008998    0.001413
#----------------------------------------------------------------------
# the lines that follow give the jet-veto efficiencies as a function of pt
#         pt            matched eff      resummed eff     fixed-order eff
20.0 0.469859336753 0.520935785813 0.451585809
25.0 0.555315981074 0.600676167128 0.537845647
30.0 0.622701690191 0.656866306201 0.605618957
35.0 0.676412730932 0.695984116302 0.660103954
40.0 0.719601181323 0.72270698028 0.704623301
45.0 0.755036420384 0.740470048827 0.741826274
50.0 0.784385215292 0.751890789856 0.773153273
55.0 0.808944841931 0.75898202846 0.799700298
60.0 0.829883314519 0.763250359867 0.822453602
65.0 0.847933325903 0.765760398975 0.842063586
70.0 0.86376576826 0.767218820634 0.859177351
75.0 0.877556615908 0.768066207585 0.873986041
80.0 0.889809441679 0.768563847616 0.88703129
85.0 0.900729879147 0.768861573456 0.898561694
90.0 0.910376974546 0.769044158967 0.908676257
95.0 0.9189296727 0.769159308475 0.917587048
100.0 0.926627275113 0.769234070148 0.925559652
105.0 0.933497054008 0.769284024722 0.932641906
110.0 0.939629423359 0.769318331823 0.938939368
115.0 0.945172578337 0.769342505948 0.944611611
120.0 0.950145247457 0.769359941138 0.949685968
125.0 0.954675323253 0.76937278308 0.954296709
130.0 0.958709444023 0.769382424425 0.958395322
135.0 0.962367211967 0.76938978324 0.962105002
140.0 0.965702558071 0.769395484769 0.965482383
145.0 0.968710324609 0.76939996195 0.968524408
150.0 0.971468193755 0.769403520064 0.971310382
155.0 0.973966336203 0.769406375556 0.973831721
160.0 0.976234358924 0.769408691501 0.976118993
165.0 0.978285201015 0.769410585055 0.978185892
170.0 0.980155898326 0.769412145051 0.980070053
175.0 0.981889412094 0.769413440502 0.981814911
180.0 0.983439708118 0.769414522688 0.983374805
185.0 0.984881256027 0.769415432345 0.98482451
190.0 0.986194917052 0.769416200842 0.986145135
195.0 0.987391166613 0.769416854318 0.987347351
200.0 0.98848224659 0.769417411596 0.988443563
205.0 0.989489652234 0.769417889405 0.989455399
210.0 0.990389134753 0.76941830034 0.990358717
215.0 0.991244034223 0.76941865581 0.991216951
220.0 0.992028660357 0.769418964273 0.992004483
225.0 0.992718573464 0.769419233001 0.992696938
230.0 0.99339304217 0.769419468223 0.993373635
235.0 0.99398113065 0.769419673168 0.993963683
240.0 0.994532540261 0.769419854062 0.994516819
245.0 0.995029837633 0.769420012999 0.995015643
