# ./jetvheto -in n3lo-fixed-order/H125-LHC13-R04-mb-0-mt-1725-xmur050-xmuf050-log.fxd -xQ 0.25 -out benchmarks-n3lo-smallR/H125-LHC13-R04-mb-0-mt-1725-xmur050-xmuf050-xQ025-N3LO+NNLLa.R0-0.5.res -scheme a -order 2 -ptmax 500.01 -small-r -fixed_order 3 -loop-mass t -R0 0.5
# process = H    
# collider = pp   
# rts =  13000.000
# M   =    125.000
# muR =     62.500
# muF =     62.500
# Q   =     31.250
# p   =      5.000
# include_c1_squared =   F
# loop_mass  = t   
# alphas(MZ) =    0.11800
# alphas(M) =    0.11264
# alphas(muR) =    0.12516
# Rjet =      0.400
# order = NNLL
# pdf name and set = PDF4LHC15_nnlo_mc.LHgrid,    0
# matching scheme = a
# total cross sections [nb] at LO, NLOdiff, NNLOdiff, N3LOdiff =     0.015885    0.020561    0.008998    0.001413
#----------------------------------------------------------------------
# the lines that follow give the jet-veto efficiencies as a function of pt
#         pt            matched eff      resummed eff     fixed-order eff
   2.00000000E+001   4.56967809E-001   4.94477220E-001   4.58478332E-001
   2.50000000E+001   5.43098504E-001   5.64598482E-001   5.43713081E-001
   3.00000000E+001   6.15529568E-001   6.06116954E-001   6.16066731E-001
   3.50000000E+001   6.73146167E-001   6.28818276E-001   6.73487735E-001
   4.00000000E+001   7.17901157E-001   6.40777897E-001   7.18067162E-001
   4.50000000E+001   7.56818013E-001   6.47108811E-001   7.56928051E-001
   5.00000000E+001   7.88220607E-001   6.50560595E-001   7.88284226E-001
   5.50000000E+001   8.15168391E-001   6.52517424E-001   8.15210520E-001
   6.00000000E+001   8.37407097E-001   6.53672171E-001   8.37433297E-001
   6.50000000E+001   8.57901751E-001   6.54379801E-001   8.57921417E-001
   7.00000000E+001   8.73766604E-001   6.54828518E-001   8.73778810E-001
   7.50000000E+001   8.87916506E-001   6.55121875E-001   8.87924776E-001
   8.00000000E+001   9.00664985E-001   6.55318940E-001   9.00670973E-001
   8.50000000E+001   9.11965532E-001   6.55454553E-001   9.11969998E-001
   9.00000000E+001   9.21926322E-001   6.55549910E-001   9.21929710E-001
   9.50000000E+001   9.29904936E-001   6.55618264E-001   9.29907319E-001
   1.00000000E+002   9.37504230E-001   6.55668121E-001   9.37506036E-001
   1.05000000E+002   9.43542208E-001   6.55705058E-001   9.43543485E-001
   1.10000000E+002   9.49084948E-001   6.55732816E-001   9.49085884E-001
   1.15000000E+002   9.54322279E-001   6.55753947E-001   9.54323006E-001
   1.20000000E+002   9.59039195E-001   6.55770225E-001   9.59039767E-001
   1.25000000E+002   9.62972450E-001   6.55782901E-001   9.62972878E-001
   1.30000000E+002   9.66366150E-001   6.55792872E-001   9.66366470E-001
   1.35000000E+002   9.69730668E-001   6.55800786E-001   9.69730923E-001
   1.40000000E+002   9.72796830E-001   6.55807123E-001   9.72797037E-001
   1.45000000E+002   9.75465444E-001   6.55812238E-001   9.75465608E-001
   1.50000000E+002   9.77552179E-001   6.55816395E-001   9.77552300E-001
   1.55000000E+002   9.79913931E-001   6.55819799E-001   9.79914033E-001
   1.60000000E+002   9.82029264E-001   6.55822604E-001   9.82029350E-001
   1.65000000E+002   9.83334939E-001   6.55824929E-001   9.83335000E-001
   1.70000000E+002   9.85013300E-001   6.55826867E-001   9.85013351E-001
   1.75000000E+002   9.86560296E-001   6.55828492E-001   9.86560338E-001
   1.80000000E+002   9.87746528E-001   6.55829860E-001   9.87746562E-001
   1.85000000E+002   9.88836590E-001   6.55831019E-001   9.88836616E-001
   1.90000000E+002   9.89952146E-001   6.55832004E-001   9.89952168E-001
   1.95000000E+002   9.90982053E-001   6.55832845E-001   9.90982071E-001
   2.00000000E+002   9.91892560E-001   6.55833566E-001   9.91892575E-001
   2.05000000E+002   9.92610969E-001   6.55834186E-001   9.92610981E-001
   2.10000000E+002   9.93331651E-001   6.55834722E-001   9.93331661E-001
   2.15000000E+002   9.93892042E-001   6.55835187E-001   9.93892050E-001
   2.20000000E+002   9.94689069E-001   6.55835591E-001   9.94689076E-001
   2.25000000E+002   9.95103434E-001   6.55835944E-001   9.95103439E-001
   2.30000000E+002   9.95613098E-001   6.55836252E-001   9.95613102E-001
   2.35000000E+002   9.95984354E-001   6.55836523E-001   9.95984357E-001
   2.40000000E+002   9.96389010E-001   6.55836761E-001   9.96389013E-001
   2.45000000E+002   9.96862030E-001   6.55836972E-001   9.96862033E-001
