# ./jetvheto -in n3lo-fixed-order/H125-LHC13-R04-mb-475-mt-1725-xmur050-xmuf100-log.fxd -xQ 0.5 -out benchmarks-n3lo-smallR/H125-LHC13-R04-mb-475-mt-1725-xmur050-xmuf100-xQ050-NNLO+NNLLb.res -scheme b -order 2 -ptmax 500.01 -fixed_order 2 -loop-mass t+b
# process = H    
# collider = pp   
# rts =  13000.000
# M   =    125.000
# muR =     62.500
# muF =    125.000
# Q   =     62.500
# p   =      5.000
# include_c1_squared =   F
# loop_mass  = t+b 
# alphas(MZ) =    0.11800
# alphas(M) =    0.11264
# alphas(muR) =    0.12516
# Rjet =      0.400
# order = NNLL
# pdf name and set = PDF4LHC15_nnlo_mc.LHgrid,    0
# matching scheme = b
# total cross sections [nb] at LO, NLOdiff, NNLOdiff, N3LOdiff =     0.015023    0.020252    0.008553    0.000949
#----------------------------------------------------------------------
# the lines that follow give the jet-veto efficiencies as a function of pt
#         pt            matched eff      resummed eff     fixed-order eff
   2.00000000E+001   4.08091232E-001   4.84862666E-001   3.20313286E-001
   2.50000000E+001   4.92991270E-001   5.58986195E-001   4.29278925E-001
   3.00000000E+001   5.62173767E-001   6.10861379E-001   5.14383374E-001
   3.50000000E+001   6.19162130E-001   6.46699934E-001   5.82581444E-001
   4.00000000E+001   6.66374059E-001   6.70957666E-001   6.38164221E-001
   4.50000000E+001   7.05935277E-001   6.86913729E-001   6.84150076E-001
   5.00000000E+001   7.39485039E-001   6.97045242E-001   7.22713547E-001
   5.50000000E+001   7.68092491E-001   7.03235291E-001   7.55241710E-001
   6.00000000E+001   7.92999339E-001   7.06881940E-001   7.83192109E-001
   6.50000000E+001   8.14732190E-001   7.08967827E-001   8.07260822E-001
   7.00000000E+001   8.33727707E-001   7.10137639E-001   8.28031068E-001
   7.50000000E+001   8.50453225E-001   7.10787706E-001   8.46095587E-001
   8.00000000E+001   8.65330583E-001   7.11149104E-001   8.61978585E-001
   8.50000000E+001   8.78395096E-001   7.11351564E-001   8.75799202E-001
   9.00000000E+001   8.90150258E-001   7.11466484E-001   8.88124135E-001
   9.50000000E+001   9.00529219E-001   7.11532808E-001   8.98934980E-001
   1.00000000E+002   9.09793326E-001   7.11571805E-001   9.08528436E-001
   1.05000000E+002   9.18115257E-001   7.11595191E-001   9.17103329E-001
   1.10000000E+002   9.25467166E-001   7.11609497E-001   9.24651250E-001
   1.15000000E+002   9.32148298E-001   7.11618425E-001   9.31485289E-001
   1.20000000E+002   9.38061091E-001   7.11624105E-001   9.37518444E-001
   1.25000000E+002   9.43472811E-001   7.11627789E-001   9.43025509E-001
   1.30000000E+002   9.48331294E-001   7.11630222E-001   9.47960161E-001
   1.35000000E+002   9.52752753E-001   7.11631857E-001   9.52442895E-001
   1.40000000E+002   9.56689868E-001   7.11632975E-001   9.56429641E-001
   1.45000000E+002   9.60354939E-001   7.11633752E-001   9.60135174E-001
   1.50000000E+002   9.63595093E-001   7.11634300E-001   9.63408528E-001
   1.55000000E+002   9.66590644E-001   7.11634693E-001   9.66431468E-001
   1.60000000E+002   9.69311348E-001   7.11634979E-001   9.69174914E-001
   1.65000000E+002   9.71781761E-001   7.11635190E-001   9.71664297E-001
   1.70000000E+002   9.74054451E-001   7.11635348E-001   9.73952895E-001
   1.75000000E+002   9.76094530E-001   7.11635467E-001   9.76006381E-001
   1.80000000E+002   9.77977804E-001   7.11635559E-001   9.77901002E-001
   1.85000000E+002   9.79687802E-001   7.11635630E-001   9.79620647E-001
   1.90000000E+002   9.81264842E-001   7.11635685E-001   9.81205921E-001
   1.95000000E+002   9.82739579E-001   7.11635729E-001   9.82687714E-001
   2.00000000E+002   9.84066842E-001   7.11635765E-001   9.84021048E-001
   2.05000000E+002   9.85303139E-001   7.11635793E-001   9.85262585E-001
   2.10000000E+002   9.86425619E-001   7.11635816E-001   9.86389604E-001
   2.15000000E+002   9.87432202E-001   7.11635835E-001   9.87400133E-001
   2.20000000E+002   9.88387420E-001   7.11635851E-001   9.88358791E-001
   2.25000000E+002   9.89257858E-001   7.11635865E-001   9.89232237E-001
   2.30000000E+002   9.90060112E-001   7.11635876E-001   9.90037128E-001
   2.35000000E+002   9.90815106E-001   7.11635885E-001   9.90794442E-001
   2.40000000E+002   9.91486004E-001   7.11635893E-001   9.91467385E-001
   2.45000000E+002   9.92124596E-001   7.11635900E-001   9.92107784E-001
