# ./jetvheto -in n3lo-fixed-order/H125-LHC13-R04-heft-xmur050-xmuf050-log.fxd -xQ 0.50 -out benchmarks-n3lo-smallR/H125-LHC13-R04-heft-xmur050-xmuf050-xQ050-N3LO+NNLLb.R0-1.0.res -scheme b -order 2 -ptmax 500.01 -fixed_order 3 -small-r -R0 1.0
# process = H    
# collider = pp   
# rts =  13000.000
# M   =    125.000
# muR =     62.500
# muF =     62.500
# Q   =     62.500
# p   =      5.000
# include_c1_squared =   F
# loop_mass  = none
# alphas(MZ) =    0.11800
# alphas(M) =    0.11264
# alphas(muR) =    0.12516
# Rjet =      0.400
# order = NNLL
# pdf name and set = PDF4LHC15_nnlo_mc.LHgrid,    0
# matching scheme = b
# total cross sections [nb] at LO, NLOdiff, NNLOdiff, N3LOdiff =     0.015055    0.019611    0.008998    0.001413
#----------------------------------------------------------------------
# the lines that follow give the jet-veto efficiencies as a function of pt
#         pt            matched eff      resummed eff     fixed-order eff
   2.00000000E+001   4.52383379E-001   4.99465891E-001   4.32272620E-001
   2.50000000E+001   5.37144055E-001   5.77005546E-001   5.20076688E-001
   3.00000000E+001   6.08833817E-001   6.31742965E-001   5.95188306E-001
   3.50000000E+001   6.65814159E-001   6.69917246E-001   6.54648121E-001
   4.00000000E+001   7.10130046E-001   6.96051120E-001   7.00880952E-001
   4.50000000E+001   7.48782747E-001   7.13471784E-001   7.41355940E-001
   5.00000000E+001   7.79721285E-001   7.24715594E-001   7.73800605E-001
   5.50000000E+001   8.06685475E-001   7.31733612E-001   8.02051238E-001
   6.00000000E+001   8.28774088E-001   7.35987448E-001   8.25176712E-001
   6.50000000E+001   8.49317245E-001   7.38511811E-001   8.46550538E-001
   7.00000000E+001   8.65241206E-001   7.39995473E-001   8.63110860E-001
   7.50000000E+001   8.79533268E-001   7.40869625E-001   8.77894218E-001
   8.00000000E+001   8.92487297E-001   7.41391405E-001   8.91221610E-001
   8.50000000E+001   9.04019661E-001   7.41709332E-001   9.03036791E-001
   9.00000000E+001   9.14251352E-001   7.41908179E-001   9.13482770E-001
   9.50000000E+001   9.22459196E-001   7.42036161E-001   9.21853677E-001
   1.00000000E+002   9.30248888E-001   7.42120955E-001   9.29768082E-001
   1.05000000E+002   9.36496435E-001   7.42178736E-001   9.36111694E-001
   1.10000000E+002   9.42271033E-001   7.42219157E-001   9.41960757E-001
   1.15000000E+002   9.47708260E-001   7.42248121E-001   9.47456202E-001
   1.20000000E+002   9.52620128E-001   7.42269331E-001   9.52413885E-001
   1.25000000E+002   9.56675128E-001   7.42285164E-001   9.56505189E-001
   1.30000000E+002   9.60223117E-001   7.42297188E-001   9.60082213E-001
   1.35000000E+002   9.63776516E-001   7.42306460E-001   9.63658956E-001
   1.40000000E+002   9.66995393E-001   7.42313707E-001   9.66896738E-001
   1.45000000E+002   9.69756501E-001   7.42319440E-001   9.69673261E-001
   1.50000000E+002   9.71913540E-001   7.42324024E-001   9.71842925E-001
   1.55000000E+002   9.74383237E-001   7.42327724E-001   9.74323047E-001
   1.60000000E+002   9.76620471E-001   7.42330738E-001   9.76568926E-001
   1.65000000E+002   9.77988587E-001   7.42333213E-001   9.77944247E-001
   1.70000000E+002   9.79770980E-001   7.42335259E-001   9.79732679E-001
   1.75000000E+002   9.81440943E-001   7.42336962E-001   9.81407724E-001
   1.80000000E+002   9.82727206E-001   7.42338388E-001   9.82698288E-001
   1.85000000E+002   9.83904202E-001   7.42339589E-001   9.83878937E-001
   1.90000000E+002   9.85119516E-001   7.42340606E-001   9.85097366E-001
   1.95000000E+002   9.86240085E-001   7.42341471E-001   9.86220604E-001
   2.00000000E+002   9.87240420E-001   7.42342210E-001   9.87223233E-001
   2.05000000E+002   9.88051865E-001   7.42342845E-001   9.88036656E-001
   2.10000000E+002   9.88874990E-001   7.42343392E-001   9.88861494E-001
   2.15000000E+002   9.89516286E-001   7.42343865E-001   9.89504277E-001
   2.20000000E+002   9.90418796E-001   7.42344276E-001   9.90408081E-001
   2.25000000E+002   9.90912375E-001   7.42344634E-001   9.90902794E-001
   2.30000000E+002   9.91510810E-001   7.42344947E-001   9.91502219E-001
   2.35000000E+002   9.91968988E-001   7.42345221E-001   9.91961268E-001
   2.40000000E+002   9.92461000E-001   7.42345462E-001   9.92454049E-001
   2.45000000E+002   9.93030428E-001   7.42345674E-001   9.93024154E-001
