# ./jetvheto -in n3lo-fixed-order/H125-LHC13-R04-mb-475-mt-1725-xmur200-xmuf200-log.fxd -xQ 0.25 -out benchmarks-n3lo-smallR/H125-LHC13-R04-mb-475-mt-1725-xmur200-xmuf200-xQ025-N3LO+NNLLa.res -scheme a -order 2 -ptmax 500.01 -fixed_order 3 -loop-mass t+b
# process = H    
# collider = pp   
# rts =  13000.000
# M   =    125.000
# muR =    250.000
# muF =    250.000
# Q   =     31.250
# p   =      5.000
# include_c1_squared =   F
# loop_mass  = t+b 
# alphas(MZ) =    0.11800
# alphas(M) =    0.11264
# alphas(muR) =    0.10244
# Rjet =      0.400
# order = NNLL
# pdf name and set = PDF4LHC15_nnlo_mc.LHgrid,    0
# matching scheme = a
# total cross sections [nb] at LO, NLOdiff, NNLOdiff, N3LOdiff =     0.010658    0.014649    0.010464    0.005358
#----------------------------------------------------------------------
# the lines that follow give the jet-veto efficiencies as a function of pt
#         pt            matched eff      resummed eff     fixed-order eff
   2.00000000E+001   4.65268108E-001   5.65647993E-001   4.72417372E-001
   2.50000000E+001   5.53090015E-001   6.37716296E-001   5.58640123E-001
   3.00000000E+001   6.20900176E-001   6.79757988E-001   6.24485219E-001
   3.50000000E+001   6.75916872E-001   7.02506655E-001   6.78169499E-001
   4.00000000E+001   7.20475292E-001   7.14412639E-001   7.21886815E-001
   4.50000000E+001   7.56293033E-001   7.20691121E-001   7.57184541E-001
   5.00000000E+001   7.87602029E-001   7.24106775E-001   7.88190304E-001
   5.50000000E+001   8.13025617E-001   7.26040668E-001   8.13419167E-001
   6.00000000E+001   8.34696842E-001   7.27181036E-001   8.34967174E-001
   6.50000000E+001   8.53121085E-001   7.27879541E-001   8.53310754E-001
   7.00000000E+001   8.69798993E-001   7.28322348E-001   8.69935842E-001
   7.50000000E+001   8.83614415E-001   7.28611788E-001   8.83714379E-001
   8.00000000E+001   8.95649908E-001   7.28806198E-001   8.95724159E-001
   8.50000000E+001   9.06362765E-001   7.28939975E-001   9.06418883E-001
   9.00000000E+001   9.15524047E-001   7.29034033E-001   9.15566959E-001
   9.50000000E+001   9.24082113E-001   7.29101456E-001   9.24115484E-001
   1.00000000E+002   9.31313711E-001   7.29150630E-001   9.31339889E-001
   1.05000000E+002   9.37688802E-001   7.29187062E-001   9.37709541E-001
   1.10000000E+002   9.43217032E-001   7.29214439E-001   9.43233610E-001
   1.15000000E+002   9.48455464E-001   7.29235280E-001   9.48468868E-001
   1.20000000E+002   9.53200884E-001   7.29251335E-001   9.53211816E-001
   1.25000000E+002   9.57155078E-001   7.29263836E-001   9.57164043E-001
   1.30000000E+002   9.60916795E-001   7.29273670E-001   9.60924212E-001
   1.35000000E+002   9.64147259E-001   7.29281476E-001   9.64153428E-001
   1.40000000E+002   9.67374786E-001   7.29287726E-001   9.67379962E-001
   1.45000000E+002   9.69953760E-001   7.29292769E-001   9.69958117E-001
   1.50000000E+002   9.72483102E-001   7.29296870E-001   9.72486795E-001
   1.55000000E+002   9.74736692E-001   7.29300227E-001   9.74739837E-001
   1.60000000E+002   9.76713404E-001   7.29302993E-001   9.76716094E-001
   1.65000000E+002   9.78435830E-001   7.29305286E-001   9.78438140E-001
   1.70000000E+002   9.80252597E-001   7.29307198E-001   9.80254593E-001
   1.75000000E+002   9.81737181E-001   7.29308800E-001   9.81738911E-001
   1.80000000E+002   9.83340173E-001   7.29310150E-001   9.83341681E-001
   1.85000000E+002   9.84502181E-001   7.29311292E-001   9.84503497E-001
   1.90000000E+002   9.85677427E-001   7.29312263E-001   9.85678580E-001
   1.95000000E+002   9.86726339E-001   7.29313093E-001   9.86727353E-001
   2.00000000E+002   9.87866285E-001   7.29313804E-001   9.87867180E-001
   2.05000000E+002   9.88666118E-001   7.29314416E-001   9.88666910E-001
   2.10000000E+002   9.89427731E-001   7.29314945E-001   9.89428433E-001
   2.15000000E+002   9.90241783E-001   7.29315403E-001   9.90242408E-001
   2.20000000E+002   9.90995246E-001   7.29315801E-001   9.90995804E-001
   2.25000000E+002   9.91586473E-001   7.29316149E-001   9.91586972E-001
   2.30000000E+002   9.92154502E-001   7.29316454E-001   9.92154949E-001
   2.35000000E+002   9.92740876E-001   7.29316721E-001   9.92741278E-001
   2.40000000E+002   9.93250896E-001   7.29316956E-001   9.93251258E-001
   2.45000000E+002   9.93744253E-001   7.29317163E-001   9.93744580E-001
