# ./jetvheto -in n3lo-fixed-order/H125-LHC13-R04-mb-0-mt-1725-xmur100-xmuf100-log.fxd -xQ 0.5 -out benchmarks-n3lo-smallR/H125-LHC13-R04-mb-0-mt-1725-xmur100-xmuf100-xQ050-N3LO+NNLLa.res -scheme a -order 2 -ptmax 500.01 -fixed_order 3 -loop-mass t
# process = H    
# collider = pp   
# rts =  13000.000
# M   =    125.000
# muR =    125.000
# muF =    125.000
# Q   =     62.500
# p   =      5.000
# include_c1_squared =   F
# loop_mass  = t   
# alphas(MZ) =    0.11800
# alphas(M) =    0.11264
# alphas(muR) =    0.11264
# Rjet =      0.400
# order = NNLL
# pdf name and set = PDF4LHC15_nnlo_mc.LHgrid,    0
# matching scheme = a
# total cross sections [nb] at LO, NLOdiff, NNLOdiff, N3LOdiff =     0.013801    0.017514    0.010146    0.003834
#----------------------------------------------------------------------
# the lines that follow give the jet-veto efficiencies as a function of pt
#         pt            matched eff      resummed eff     fixed-order eff
   2.00000000E+001   4.66898555E-001   5.20624865E-001   4.70549319E-001
   2.50000000E+001   5.53740256E-001   6.04227448E-001   5.55098689E-001
   3.00000000E+001   6.25756128E-001   6.63556382E-001   6.25631507E-001
   3.50000000E+001   6.81848184E-001   7.05132637E-001   6.80214785E-001
   4.00000000E+001   7.26876953E-001   7.33726813E-001   7.24327023E-001
   4.50000000E+001   7.63037704E-001   7.52897595E-001   7.60109480E-001
   5.00000000E+001   7.93301882E-001   7.65364033E-001   7.90410150E-001
   5.50000000E+001   8.18881973E-001   7.73217128E-001   8.16264683E-001
   6.00000000E+001   8.40280368E-001   7.78029925E-001   8.38035676E-001
   6.50000000E+001   8.59278744E-001   7.80925889E-001   8.57426760E-001
   7.00000000E+001   8.75238741E-001   7.82657024E-001   8.73744963E-001
   7.50000000E+001   8.88531709E-001   7.83697469E-001   8.87342330E-001
   8.00000000E+001   9.00221048E-001   7.84332607E-001   8.99280183E-001
   8.50000000E+001   9.10788967E-001   7.84729166E-001   9.10046058E-001
   9.00000000E+001   9.19805384E-001   7.84983468E-001   9.19217312E-001
   9.50000000E+001   9.28071064E-001   7.85151217E-001   9.27603719E-001
   1.00000000E+002   9.34997925E-001   7.85264998E-001   9.34624471E-001
   1.05000000E+002   9.41217949E-001   7.85344233E-001   9.40917661E-001
   1.10000000E+002   9.46812147E-001   7.85400760E-001   9.46569141E-001
   1.15000000E+002   9.51845979E-001   7.85441972E-001   9.51647991E-001
   1.20000000E+002   9.56222153E-001   7.85472607E-001   9.56059806E-001
   1.25000000E+002   9.60017299E-001   7.85495775E-001   9.59883314E-001
   1.30000000E+002   9.63822957E-001   7.85513565E-001   9.63711695E-001
   1.35000000E+002   9.67147665E-001   7.85527411E-001   9.67054718E-001
   1.40000000E+002   9.69955354E-001   7.85538318E-001   9.69877285E-001
   1.45000000E+002   9.72637048E-001   7.85547004E-001   9.72571106E-001
   1.50000000E+002   9.74908704E-001   7.85553987E-001   9.74852733E-001
   1.55000000E+002   9.77358185E-001   7.85559652E-001   9.77310440E-001
   1.60000000E+002   9.79025231E-001   7.85564284E-001   9.78984317E-001
   1.65000000E+002   9.80810841E-001   7.85568100E-001   9.80775628E-001
   1.70000000E+002   9.82372746E-001   7.85571264E-001   9.82342311E-001
   1.75000000E+002   9.83889158E-001   7.85573903E-001   9.83862750E-001
   1.80000000E+002   9.85281287E-001   7.85576119E-001   9.85258287E-001
   1.85000000E+002   9.86531818E-001   7.85577988E-001   9.86511714E-001
   1.90000000E+002   9.87408956E-001   7.85579572E-001   9.87391325E-001
   1.95000000E+002   9.88533677E-001   7.85580922E-001   9.88518162E-001
   2.00000000E+002   9.89488052E-001   7.85582077E-001   9.89474357E-001
   2.05000000E+002   9.90309262E-001   7.85583070E-001   9.90297139E-001
   2.10000000E+002   9.91043988E-001   7.85583926E-001   9.91033226E-001
   2.15000000E+002   9.91858946E-001   7.85584667E-001   9.91849366E-001
   2.20000000E+002   9.92449318E-001   7.85585310E-001   9.92440768E-001
   2.25000000E+002   9.93071325E-001   7.85585871E-001   9.93063675E-001
   2.30000000E+002   9.93651142E-001   7.85586362E-001   9.93644282E-001
   2.35000000E+002   9.94187674E-001   7.85586792E-001   9.94181508E-001
   2.40000000E+002   9.94551617E-001   7.85587170E-001   9.94546063E-001
   2.45000000E+002   9.95039539E-001   7.85587504E-001   9.95034525E-001
