# ./jetvheto -in n3lo-fixed-order/H125-LHC13-R04-heft-xmur050-xmuf100-log.fxd -xQ 0.50 -out benchmarks-n3lo-smallR/H125-LHC13-R04-heft-xmur050-xmuf100-xQ050-NNLO+NNLLa.R0-2.0.res -scheme a -order 2 -ptmax 500.01 -fixed_order 2 -small-r -R0 2.0
# process = H    
# collider = pp   
# rts =  13000.000
# M   =    125.000
# muR =     62.500
# muF =    125.000
# Q   =     62.500
# p   =      5.000
# include_c1_squared =   F
# loop_mass  = none
# alphas(MZ) =    0.11800
# alphas(M) =    0.11264
# alphas(muR) =    0.12516
# Rjet =      0.400
# order = NNLL
# pdf name and set = PDF4LHC15_nnlo_mc.LHgrid,    0
# matching scheme = a
# total cross sections [nb] at LO, NLOdiff, NNLOdiff, N3LOdiff =     0.015984    0.019551    0.008553    0.000949
#----------------------------------------------------------------------
# the lines that follow give the jet-veto efficiencies as a function of pt
#         pt            matched eff      resummed eff     fixed-order eff
   2.00000000E+001   4.96873969E-001   5.25821986E-001   4.60557289E-001
   2.50000000E+001   5.78764097E-001   5.98032318E-001   5.47967086E-001
   3.00000000E+001   6.42849340E-001   6.48280986E-001   6.15938775E-001
   3.50000000E+001   6.93515097E-001   6.82801592E-001   6.69985244E-001
   4.00000000E+001   7.34290774E-001   7.06005344E-001   7.14028235E-001
   4.50000000E+001   7.67360163E-001   7.21124128E-001   7.50288563E-001
   5.00000000E+001   7.94673979E-001   7.30596398E-001   7.80624385E-001
   5.50000000E+001   8.17500201E-001   7.36274104E-001   8.06187879E-001
   6.00000000E+001   8.37030797E-001   7.39528907E-001   8.28085391E-001
   6.50000000E+001   8.53918254E-001   7.41319845E-001   8.46931857E-001
   7.00000000E+001   8.68563551E-001   7.42270487E-001   8.63146333E-001
   7.50000000E+001   8.81473132E-001   7.42759026E-001   8.77281906E-001
   8.00000000E+001   8.92896463E-001   7.43001767E-001   8.89649059E-001
   8.50000000E+001   9.02951981E-001   7.43116966E-001   9.00425349E-001
   9.00000000E+001   9.11993611E-001   7.43167432E-001   9.10015994E-001
   9.50000000E+001   9.19989847E-001   7.43185827E-001   9.18431200E-001
   1.00000000E+002   9.27135385E-001   7.43188894E-001   9.25897663E-001
   1.05000000E+002   9.33540301E-001   7.43185102E-001   9.32549831E-001
   1.10000000E+002   9.39241027E-001   7.43178660E-001   9.38442346E-001
   1.15000000E+002   9.44410137E-001   7.43171601E-001   9.43761259E-001
   1.20000000E+002   9.49029993E-001   7.43164850E-001   9.48499013E-001
   1.25000000E+002   9.53211415E-001   7.43158782E-001   9.52773925E-001
   1.30000000E+002   9.56976927E-001   7.43153500E-001   9.56614098E-001
   1.35000000E+002   9.60413141E-001   7.43148983E-001   9.60110351E-001
   1.40000000E+002   9.63466613E-001   7.43145157E-001   9.63212443E-001
   1.45000000E+002   9.66315090E-001   7.43141932E-001   9.66100537E-001
   1.50000000E+002   9.68831525E-001   7.43139220E-001   9.68649466E-001
   1.55000000E+002   9.71145412E-001   7.43136938E-001   9.70990153E-001
   1.60000000E+002   9.73278580E-001   7.43135016E-001   9.73145550E-001
   1.65000000E+002   9.75203014E-001   7.43133394E-001   9.75088523E-001
   1.70000000E+002   9.76989503E-001   7.43132022E-001   9.76890548E-001
   1.75000000E+002   9.78593978E-001   7.43130859E-001   9.78508110E-001
   1.80000000E+002   9.80088468E-001   7.43129868E-001   9.80013672E-001
   1.85000000E+002   9.81440669E-001   7.43129023E-001   9.81375283E-001
   1.90000000E+002   9.82692720E-001   7.43128299E-001   9.82635363E-001
   1.95000000E+002   9.83870126E-001   7.43127677E-001   9.83819647E-001
   2.00000000E+002   9.84938652E-001   7.43127141E-001   9.84894086E-001
   2.05000000E+002   9.85934403E-001   7.43126678E-001   9.85894943E-001
   2.10000000E+002   9.86842465E-001   7.43126276E-001   9.86807426E-001
   2.15000000E+002   9.87666559E-001   7.43125927E-001   9.87635361E-001
   2.20000000E+002   9.88447549E-001   7.43125622E-001   9.88419700E-001
   2.25000000E+002   9.89164925E-001   7.43125356E-001   9.89140003E-001
   2.30000000E+002   9.89832985E-001   7.43125122E-001   9.89810630E-001
   2.35000000E+002   9.90470875E-001   7.43124917E-001   9.90450776E-001
   2.40000000E+002   9.91041476E-001   7.43124736E-001   9.91023366E-001
   2.45000000E+002   9.91583032E-001   7.43124575E-001   9.91566680E-001
