# ./jetvheto -in n3lo-fixed-order/H125-LHC13-R04-mb-475-mt-1725-xmur050-xmuf050-log.fxd -xQ 1.0 -out benchmarks-n3lo-smallR/H125-LHC13-R04-mb-475-mt-1725-xmur050-xmuf050-xQ100-NNLO+NNLLb.R0-0.5.res -scheme b -order 2 -ptmax 500.01 -fixed_order 2 -small-r -loop-mass t+b -R0 0.5
# process = H    
# collider = pp   
# rts =  13000.000
# M   =    125.000
# muR =     62.500
# muF =     62.500
# Q   =    125.000
# p   =      5.000
# include_c1_squared =   F
# loop_mass  = t+b 
# alphas(MZ) =    0.11800
# alphas(M) =    0.11264
# alphas(muR) =    0.12516
# Rjet =      0.400
# order = NNLL
# pdf name and set = PDF4LHC15_nnlo_mc.LHgrid,    0
# matching scheme = b
# total cross sections [nb] at LO, NLOdiff, NNLOdiff, N3LOdiff =     0.014147    0.020254    0.008998    0.001413
#----------------------------------------------------------------------
# the lines that follow give the jet-veto efficiencies as a function of pt
#         pt            matched eff      resummed eff     fixed-order eff
   2.00000000E+001   4.48253560E-001   5.66967137E-001   3.08135668E-001
   2.50000000E+001   5.31834134E-001   6.47653774E-001   4.16958718E-001
   3.00000000E+001   5.99535962E-001   7.03334216E-001   5.02459671E-001
   3.50000000E+001   6.54984552E-001   7.41377472E-001   5.71196452E-001
   4.00000000E+001   7.00701342E-001   7.66881632E-001   6.27360842E-001
   4.50000000E+001   7.39128156E-001   7.83317307E-001   6.74295094E-001
   5.00000000E+001   7.71462487E-001   7.93113936E-001   7.13816378E-001
   5.50000000E+001   7.98727366E-001   7.98020251E-001   7.47307378E-001
   6.00000000E+001   8.21951219E-001   7.99310821E-001   7.76012324E-001
   6.50000000E+001   8.41802325E-001   7.97940886E-001   8.00751743E-001
   7.00000000E+001   8.59016010E-001   7.94642957E-001   8.22342000E-001
   7.50000000E+001   8.73728545E-001   7.89981534E-001   8.41024239E-001
   8.00000000E+001   8.86597514E-001   7.84401861E-001   8.57481768E-001
   8.50000000E+001   8.97891834E-001   7.78261441E-001   8.72028209E-001
   9.00000000E+001   9.07698990E-001   7.71848065E-001   8.84788465E-001
   9.50000000E+001   9.16261026E-001   7.65391023E-001   8.96030076E-001
   1.00000000E+002   9.23908001E-001   7.59071250E-001   9.06088095E-001
   1.05000000E+002   9.30673624E-001   7.53025545E-001   9.15022873E-001
   1.10000000E+002   9.36680445E-001   7.47351478E-001   9.22967578E-001
   1.15000000E+002   9.42114860E-001   7.42112646E-001   9.30123525E-001
   1.20000000E+002   9.46993793E-001   7.37342152E-001   9.36525194E-001
   1.25000000E+002   9.51471661E-001   7.33049037E-001   9.42341979E-001
   1.30000000E+002   9.55466301E-001   7.29223803E-001   9.47512677E-001
   1.35000000E+002   9.59120661E-001   7.25843428E-001   9.52192707E-001
   1.40000000E+002   9.62489076E-001   7.22876030E-001   9.56453519E-001
   1.45000000E+002   9.65551542E-001   7.20284783E-001   9.60291255E-001
   1.50000000E+002   9.68395297E-001   7.18030974E-001   9.63805964E-001
   1.55000000E+002   9.70995227E-001   7.16076246E-001   9.66986816E-001
   1.60000000E+002   9.73378373E-001   7.14384106E-001   9.69872376E-001
   1.65000000E+002   9.75551202E-001   7.12920789E-001   9.72479918E-001
   1.70000000E+002   9.77552394E-001   7.11655823E-001   9.74856924E-001
   1.75000000E+002   9.79428643E-001   7.10562125E-001   9.77058190E-001
   1.80000000E+002   9.81114569E-001   7.09615871E-001   9.79026110E-001
   1.85000000E+002   9.82699040E-001   7.08796323E-001   9.80855018E-001
   1.90000000E+002   9.84152759E-001   7.08085557E-001   9.82521082E-001
   1.95000000E+002   9.85484557E-001   7.07468157E-001   9.84037765E-001
   2.00000000E+002   9.86706312E-001   7.06930913E-001   9.85420716E-001
   2.05000000E+002   9.87842078E-001   7.06462531E-001   9.86697220E-001
   2.10000000E+002   9.88858383E-001   7.06053372E-001   9.87836822E-001
   2.15000000E+002   9.89833115E-001   7.05695211E-001   9.88919546E-001
   2.20000000E+002   9.90731741E-001   7.05381033E-001   9.89913075E-001
   2.25000000E+002   9.91521633E-001   7.05104853E-001   9.90786656E-001
   2.30000000E+002   9.92301665E-001   7.04861560E-001   9.91640359E-001
   2.35000000E+002   9.92980803E-001   7.04646784E-001   9.92384747E-001
   2.40000000E+002   9.93620845E-001   7.04456784E-001   9.93082569E-001
   2.45000000E+002   9.94198851E-001   7.04288355E-001   9.93711871E-001
