# ./jetvheto -in n3lo-fixed-order/H125-LHC13-R04-heft-xmur100-xmuf100-log.fxd -xQ 0.50 -out benchmarks-n3lo-smallR/H125-LHC13-R04-heft-xmur100-xmuf100-xQ050-NNLO+NNLLa.R0-2.0.res -scheme a -order 2 -ptmax 500.01 -fixed_order 2 -small-r -R0 2.0
# process = H    
# collider = pp   
# rts =  13000.000
# M   =    125.000
# muR =    125.000
# muF =    125.000
# Q   =     62.500
# p   =      5.000
# include_c1_squared =   F
# loop_mass  = none
# alphas(MZ) =    0.11800
# alphas(M) =    0.11264
# alphas(muR) =    0.11264
# Rjet =      0.400
# order = NNLL
# pdf name and set = PDF4LHC15_nnlo_mc.LHgrid,    0
# matching scheme = a
# total cross sections [nb] at LO, NLOdiff, NNLOdiff, N3LOdiff =     0.012945    0.016716    0.010146    0.003834
#----------------------------------------------------------------------
# the lines that follow give the jet-veto efficiencies as a function of pt
#         pt            matched eff      resummed eff     fixed-order eff
   2.00000000E+001   4.95594896E-001   5.26809312E-001   5.03121755E-001
   2.50000000E+001   5.81789454E-001   6.06265253E-001   5.84489186E-001
   3.00000000E+001   6.48827019E-001   6.62381433E-001   6.47024325E-001
   3.50000000E+001   7.01398083E-001   7.01537322E-001   6.96432698E-001
   4.00000000E+001   7.43222337E-001   7.28339604E-001   7.36537087E-001
   4.50000000E+001   7.76725498E-001   7.46204512E-001   7.69498888E-001
   5.00000000E+001   8.04003071E-001   7.57734279E-001   7.97057559E-001
   5.50000000E+001   8.26485334E-001   7.64925452E-001   8.20296043E-001
   6.00000000E+001   8.45416520E-001   7.69275867E-001   8.40179538E-001
   6.50000000E+001   8.61592949E-001   7.71850896E-001   8.57311575E-001
   7.00000000E+001   8.75494282E-001   7.73359409E-001   8.72069843E-001
   7.50000000E+001   8.87662103E-001   7.74244715E-001   8.84956099E-001
   8.00000000E+001   8.98364196E-001   7.74770817E-001   8.96237121E-001
   8.50000000E+001   9.07774085E-001   7.75089889E-001   9.06102675E-001
   9.00000000E+001   9.16197190E-001   7.75288439E-001   9.14880120E-001
   9.50000000E+001   9.23646972E-001   7.75415551E-001   9.22604114E-001
   1.00000000E+002   9.30303778E-001   7.75499329E-001   9.29473021E-001
   1.05000000E+002   9.36269387E-001   7.75556133E-001   9.35603161E-001
   1.10000000E+002   9.41591391E-001   7.75595688E-001   9.41053390E-001
   1.15000000E+002   9.46413462E-001   7.75623913E-001   9.45975962E-001
   1.20000000E+002   9.50739146E-001   7.75644505E-001   9.50380922E-001
   1.25000000E+002   9.54649336E-001   7.75659827E-001   9.54354081E-001
   1.30000000E+002   9.58178870E-001   7.75671431E-001   9.57933958E-001
   1.35000000E+002   9.61400276E-001   7.75680358E-001   9.61195880E-001
   1.40000000E+002   9.64281811E-001   7.75687320E-001   9.64110237E-001
   1.45000000E+002   9.66955821E-001   7.75692818E-001   9.66811003E-001
   1.50000000E+002   9.69339528E-001   7.75697207E-001   9.69216654E-001
   1.55000000E+002   9.71529971E-001   7.75700747E-001   9.71425199E-001
   1.60000000E+002   9.73548851E-001   7.75703626E-001   9.73459094E-001
   1.65000000E+002   9.75379092E-001   7.75705988E-001   9.75301855E-001
   1.70000000E+002   9.77077341E-001   7.75707940E-001   9.77010596E-001
   1.75000000E+002   9.78612252E-001   7.75709563E-001   9.78554343E-001
   1.80000000E+002   9.80041130E-001   7.75710922E-001   9.79990696E-001
   1.85000000E+002   9.81340509E-001   7.75712065E-001   9.81296426E-001
   1.90000000E+002   9.82542591E-001   7.75713033E-001   9.82503927E-001
   1.95000000E+002   9.83672310E-001   7.75713857E-001   9.83638287E-001
   2.00000000E+002   9.84705239E-001   7.75714560E-001   9.84675207E-001
   2.05000000E+002   9.85665675E-001   7.75715163E-001   9.85639085E-001
   2.10000000E+002   9.86546627E-001   7.75715683E-001   9.86523019E-001
   2.15000000E+002   9.87351998E-001   7.75716133E-001   9.87330981E-001
   2.20000000E+002   9.88110978E-001   7.75716524E-001   9.88092219E-001
   2.25000000E+002   9.88811769E-001   7.75716864E-001   9.88794983E-001
   2.30000000E+002   9.89466117E-001   7.75717161E-001   9.89451061E-001
   2.35000000E+002   9.90089342E-001   7.75717421E-001   9.90075806E-001
   2.40000000E+002   9.90653050E-001   7.75717650E-001   9.90640855E-001
   2.45000000E+002   9.91185965E-001   7.75717852E-001   9.91174955E-001
