# ./jetvheto -in n3lo-fixed-order/H125-LHC13-R04-mb-475-mt-1725-xmur100-xmuf100-log.fxd -xQ 0.333 -out benchmarks-n3lo-smallR/H125-LHC13-R04-mb-475-mt-1725-xmur100-xmuf100-xQ033-NNLO+NNLLa.R0-1.0.res -scheme a -order 2 -ptmax 500.01 -fixed_order 2 -small-r -loop-mass t+b -R0 1.0
# process = H    
# collider = pp   
# rts =  13000.000
# M   =    125.000
# muR =    125.000
# muF =    125.000
# Q   =     41.625
# p   =      5.000
# include_c1_squared =   F
# loop_mass  = t+b 
# alphas(MZ) =    0.11800
# alphas(M) =    0.11264
# alphas(muR) =    0.11264
# Rjet =      0.400
# order = NNLL
# pdf name and set = PDF4LHC15_nnlo_mc.LHgrid,    0
# matching scheme = a
# total cross sections [nb] at LO, NLOdiff, NNLOdiff, N3LOdiff =     0.012292    0.016994    0.010146    0.003834
#----------------------------------------------------------------------
# the lines that follow give the jet-veto efficiencies as a function of pt
#         pt            matched eff      resummed eff     fixed-order eff
   2.00000000E+001   4.73014661E-001   5.06140607E-001   4.93150502E-001
   2.50000000E+001   5.60640324E-001   5.82948953E-001   5.75024850E-001
   3.00000000E+001   6.29086309E-001   6.34773689E-001   6.38301171E-001
   3.50000000E+001   6.83224948E-001   6.68279594E-001   6.88801162E-001
   4.00000000E+001   7.26467847E-001   6.89038410E-001   7.29800784E-001
   4.50000000E+001   7.61686086E-001   7.01523713E-001   7.63713984E-001
   5.00000000E+001   7.90877347E-001   7.08958623E-001   7.92155543E-001
   5.50000000E+001   8.15331378E-001   7.13420655E-001   8.16168137E-001
   6.00000000E+001   8.36229701E-001   7.16150140E-001   8.36797648E-001
   6.50000000E+001   8.54187005E-001   7.17861249E-001   8.54584097E-001
   7.00000000E+001   8.69681116E-001   7.18962252E-001   8.69965602E-001
   7.50000000E+001   8.83146364E-001   7.19688979E-001   8.83354565E-001
   8.00000000E+001   8.94995235E-001   7.20180304E-001   8.95150407E-001
   8.50000000E+001   9.05329072E-001   7.20519907E-001   9.05446499E-001
   9.00000000E+001   9.14540705E-001   7.20759432E-001   9.14630889E-001
   9.50000000E+001   9.22638671E-001   7.20931507E-001   9.22708788E-001
   1.00000000E+002   9.29838090E-001   7.21057213E-001   9.29893229E-001
   1.05000000E+002   9.36287244E-001   7.21150455E-001   9.36331059E-001
   1.10000000E+002   9.41973261E-001   7.21220585E-001   9.42008406E-001
   1.15000000E+002   9.47127503E-001   7.21274008E-001   9.47155949E-001
   1.20000000E+002   9.51686517E-001   7.21315182E-001   9.51709725E-001
   1.25000000E+002   9.55858557E-001   7.21347258E-001   9.55877636E-001
   1.30000000E+002   9.59604946E-001   7.21372495E-001   9.59620741E-001
   1.35000000E+002   9.63008599E-001   7.21392534E-001   9.63021762E-001
   1.40000000E+002   9.66057667E-001   7.21408581E-001   9.66068699E-001
   1.45000000E+002   9.68877563E-001   7.21421533E-001   9.68886869E-001
   1.50000000E+002   9.71391309E-001   7.21432065E-001   9.71399196E-001
   1.55000000E+002   9.73715231E-001   7.21440688E-001   9.73721950E-001
   1.60000000E+002   9.75816853E-001   7.21447794E-001   9.75822606E-001
   1.65000000E+002   9.77736281E-001   7.21453684E-001   9.77741229E-001
   1.70000000E+002   9.79496751E-001   7.21458596E-001   9.79501024E-001
   1.75000000E+002   9.81086183E-001   7.21462712E-001   9.81089888E-001
   1.80000000E+002   9.82549066E-001   7.21466180E-001   9.82552292E-001
   1.85000000E+002   9.83884726E-001   7.21469116E-001   9.83887543E-001
   1.90000000E+002   9.85114017E-001   7.21471611E-001   9.85116487E-001
   1.95000000E+002   9.86261061E-001   7.21473743E-001   9.86263234E-001
   2.00000000E+002   9.87299016E-001   7.21475570E-001   9.87300933E-001
   2.05000000E+002   9.88263361E-001   7.21477143E-001   9.88265058E-001
   2.10000000E+002   9.89143084E-001   7.21478501E-001   9.89144590E-001
   2.15000000E+002   9.89935748E-001   7.21479679E-001   9.89937088E-001
   2.20000000E+002   9.90683720E-001   7.21480703E-001   9.90684915E-001
   2.25000000E+002   9.91367695E-001   7.21481597E-001   9.91368764E-001
   2.30000000E+002   9.91998342E-001   7.21482379E-001   9.91999301E-001
   2.35000000E+002   9.92588285E-001   7.21483065E-001   9.92589146E-001
   2.40000000E+002   9.93118008E-001   7.21483670E-001   9.93118784E-001
   2.45000000E+002   9.93620347E-001   7.21484203E-001   9.93621047E-001
