# ./jetvheto -in n3lo-fixed-order/H125-LHC13-R04-mb-0-mt-1725-xmur200-xmuf100-log.fxd -xQ 0.5 -out benchmarks-n3lo-smallR/H125-LHC13-R04-mb-0-mt-1725-xmur200-xmuf100-xQ050-N3LO+NNLLa.res -scheme a -order 2 -ptmax 500.01 -fixed_order 3 -loop-mass t
# process = H    
# collider = pp   
# rts =  13000.000
# M   =    125.000
# muR =    250.000
# muF =    125.000
# Q   =     62.500
# p   =      5.000
# include_c1_squared =   F
# loop_mass  = t   
# alphas(MZ) =    0.11800
# alphas(M) =    0.11264
# alphas(muR) =    0.10244
# Rjet =      0.400
# order = NNLL
# pdf name and set = PDF4LHC15_nnlo_mc.LHgrid,    0
# matching scheme = a
# total cross sections [nb] at LO, NLOdiff, NNLOdiff, N3LOdiff =     0.011501    0.015066    0.010526    0.005600
#----------------------------------------------------------------------
# the lines that follow give the jet-veto efficiencies as a function of pt
#         pt            matched eff      resummed eff     fixed-order eff
   2.00000000E+001   4.70856436E-001   5.32434914E-001   4.90754923E-001
   2.50000000E+001   5.59004120E-001   6.19797763E-001   5.73235191E-001
   3.00000000E+001   6.30708075E-001   6.82363726E-001   6.40126678E-001
   3.50000000E+001   6.86901337E-001   7.26629491E-001   6.92213126E-001
   4.00000000E+001   7.31921829E-001   7.57399968E-001   7.34315482E-001
   4.50000000E+001   7.68042335E-001   7.78289210E-001   7.68570187E-001
   5.00000000E+001   7.97959454E-001   7.92079754E-001   7.97452991E-001
   5.50000000E+001   8.22978137E-001   8.00929204E-001   8.22000414E-001
   6.00000000E+001   8.43874137E-001   8.06476435E-001   8.42763416E-001
   6.50000000E+001   8.62116292E-001   8.09905499E-001   8.61058104E-001
   7.00000000E+001   8.77485016E-001   8.12020070E-001   8.76555984E-001
   7.50000000E+001   8.90456208E-001   8.13335471E-001   8.89675686E-001
   8.00000000E+001   9.01825772E-001   8.14168187E-001   9.01186361E-001
   8.50000000E+001   9.11983330E-001   8.14707551E-001   9.11466536E-001
   9.00000000E+001   9.20744081E-001   8.15065935E-001   9.20328326E-001
   9.50000000E+001   9.28672534E-001   8.15310291E-001   9.28338424E-001
   1.00000000E+002   9.35451568E-001   8.15481055E-001   9.35182357E-001
   1.05000000E+002   9.41524812E-001   8.15603133E-001   9.41307045E-001
   1.10000000E+002   9.46956768E-001   8.15692216E-001   9.46779771E-001
   1.15000000E+002   9.51858045E-001   8.15758424E-001   9.51713368E-001
   1.20000000E+002   9.56156449E-001   8.15808441E-001   9.56037512E-001
   1.25000000E+002   9.59936455E-001   8.15846780E-001   9.59838094E-001
   1.30000000E+002   9.63603311E-001   8.15876550E-001   9.63521519E-001
   1.35000000E+002   9.66836070E-001   8.15899938E-001   9.66767667E-001
   1.40000000E+002   9.69631730E-001   8.15918504E-001   9.69574216E-001
   1.45000000E+002   9.72266123E-001   8.15933383E-001   9.72217507E-001
   1.50000000E+002   9.74539312E-001   8.15945411E-001   9.74498018E-001
   1.55000000E+002   9.76872025E-001   8.15955211E-001   9.76836788E-001
   1.60000000E+002   9.78625696E-001   8.15963254E-001   9.78595480E-001
   1.65000000E+002   9.80396628E-001   8.15969899E-001   9.80370612E-001
   1.70000000E+002   9.81971533E-001   8.15975424E-001   9.81949039E-001
   1.75000000E+002   9.83462373E-001   8.15980044E-001   9.83442850E-001
   1.80000000E+002   9.84835566E-001   8.15983929E-001   9.84818558E-001
   1.85000000E+002   9.86073819E-001   8.15987211E-001   9.86058950E-001
   1.90000000E+002   9.87035166E-001   8.15989998E-001   9.87022120E-001
   1.95000000E+002   9.88130642E-001   8.15992375E-001   9.88119161E-001
   2.00000000E+002   9.89081207E-001   8.15994411E-001   9.89071072E-001
   2.05000000E+002   9.89922528E-001   8.15996161E-001   9.89913555E-001
   2.10000000E+002   9.90678299E-001   8.15997672E-001   9.90670331E-001
   2.15000000E+002   9.91463974E-001   8.15998981E-001   9.91456881E-001
   2.20000000E+002   9.92085586E-001   8.16000119E-001   9.92079255E-001
   2.25000000E+002   9.92708606E-001   8.16001111E-001   9.92702941E-001
   2.30000000E+002   9.93288168E-001   8.16001979E-001   9.93283087E-001
   2.35000000E+002   9.93826603E-001   8.16002740E-001   9.93822036E-001
   2.40000000E+002   9.94232804E-001   8.16003410E-001   9.94228689E-001
   2.45000000E+002   9.94710730E-001   8.16004001E-001   9.94707015E-001
