# ./jetvheto -in n3lo-fixed-order/H125-LHC13-R04-mb-475-mt-1725-xmur050-xmuf025-log.fxd -xQ 0.25 -out benchmarks-n3lo-smallR/H125-LHC13-R04-mb-475-mt-1725-xmur050-xmuf025-xQ025-N3LO+NNLLb.R0-1.0.res -scheme b -order 2 -ptmax 500.01 -fixed_order 3 -small-r -loop-mass t+b -R0 1.0
# process = H    
# collider = pp   
# rts =  13000.000
# M   =    125.000
# muR =     62.500
# muF =     31.250
# Q   =     31.250
# p   =      5.000
# include_c1_squared =   F
# loop_mass  = t+b 
# alphas(MZ) =    0.11800
# alphas(M) =    0.11264
# alphas(muR) =    0.12516
# Rjet =      0.400
# order = NNLL
# pdf name and set = PDF4LHC15_nnlo_mc.LHgrid,    0
# matching scheme = b
# total cross sections [nb] at LO, NLOdiff, NNLOdiff, N3LOdiff =     0.012926    0.020318    0.009723    0.001827
#----------------------------------------------------------------------
# the lines that follow give the jet-veto efficiencies as a function of pt
#         pt            matched eff      resummed eff     fixed-order eff
   2.00000000E+001   4.21598438E-001   4.62573291E-001   4.15980545E-001
   2.50000000E+001   5.10595190E-001   5.30603899E-001   5.07800100E-001
   3.00000000E+001   5.82092608E-001   5.71191949E-001   5.80656478E-001
   3.50000000E+001   6.40515784E-001   5.93499069E-001   6.39756651E-001
   4.00000000E+001   6.89370691E-001   6.05288776E-001   6.88975344E-001
   4.50000000E+001   7.30812498E-001   6.11541861E-001   7.30606525E-001
   5.00000000E+001   7.65517591E-001   6.14954974E-001   7.65403404E-001
   5.50000000E+001   7.95831403E-001   6.16891103E-001   7.95769940E-001
   6.00000000E+001   8.20989330E-001   6.18034060E-001   8.20952172E-001
   6.50000000E+001   8.41309139E-001   6.18734623E-001   8.41282612E-001
   7.00000000E+001   8.60373828E-001   6.19178922E-001   8.60356605E-001
   7.50000000E+001   8.76595953E-001   6.19469417E-001   8.76584241E-001
   8.00000000E+001   8.90184543E-001   6.19664570E-001   8.90175714E-001
   8.50000000E+001   9.02722051E-001   6.19798875E-001   9.02715631E-001
   9.00000000E+001   9.13668181E-001   6.19893313E-001   9.13663383E-001
   9.50000000E+001   9.21898696E-001   6.19961011E-001   9.21894582E-001
   1.00000000E+002   9.30780943E-001   6.20010389E-001   9.30777862E-001
   1.05000000E+002   9.37707081E-001   6.20046973E-001   9.37704516E-001
   1.10000000E+002   9.44696590E-001   6.20074465E-001   9.44694592E-001
   1.15000000E+002   9.50721961E-001   6.20095394E-001   9.50720349E-001
   1.20000000E+002   9.55559608E-001   6.20111516E-001   9.55558232E-001
   1.25000000E+002   9.59756654E-001   6.20124071E-001   9.59755469E-001
   1.30000000E+002   9.64021333E-001   6.20133946E-001   9.64020346E-001
   1.35000000E+002   9.67558664E-001   6.20141785E-001   9.67557819E-001
   1.40000000E+002   9.70866478E-001   6.20148062E-001   9.70865759E-001
   1.45000000E+002   9.73929657E-001   6.20153127E-001   9.73929043E-001
   1.50000000E+002   9.76552413E-001   6.20157245E-001   9.76551883E-001
   1.55000000E+002   9.78957335E-001   6.20160616E-001   9.78956876E-001
   1.60000000E+002   9.81460190E-001   6.20163394E-001   9.81459799E-001
   1.65000000E+002   9.83316071E-001   6.20165697E-001   9.83315727E-001
   1.70000000E+002   9.84871745E-001   6.20167617E-001   9.84871440E-001
   1.75000000E+002   9.86707086E-001   6.20169226E-001   9.86706822E-001
   1.80000000E+002   9.87960909E-001   6.20170581E-001   9.87960674E-001
   1.85000000E+002   9.89386602E-001   6.20171729E-001   9.89386397E-001
   1.90000000E+002   9.90522360E-001   6.20172704E-001   9.90522177E-001
   1.95000000E+002   9.91725370E-001   6.20173537E-001   9.91725209E-001
   2.00000000E+002   9.92593457E-001   6.20174251E-001   9.92593312E-001
   2.05000000E+002   9.93441393E-001   6.20174866E-001   9.93441263E-001
   2.10000000E+002   9.94207199E-001   6.20175397E-001   9.94207082E-001
   2.15000000E+002   9.95058489E-001   6.20175857E-001   9.95058385E-001
   2.20000000E+002   9.95659263E-001   6.20176257E-001   9.95659169E-001
   2.25000000E+002   9.96348700E-001   6.20176607E-001   9.96348616E-001
   2.30000000E+002   9.96847395E-001   6.20176912E-001   9.96847320E-001
   2.35000000E+002   9.97218821E-001   6.20177181E-001   9.97218752E-001
   2.40000000E+002   9.97738133E-001   6.20177417E-001   9.97738071E-001
   2.45000000E+002   9.98160772E-001   6.20177625E-001   9.98160716E-001
