# ./jetvheto -in n3lo-fixed-order/H125-LHC13-R04-heft-xmur100-xmuf100-log.fxd -xQ 0.25 -out benchmarks-n3lo-smallR/H125-LHC13-R04-heft-xmur100-xmuf100-xQ025-N3LO+NNLLa.R0-2.0.res -scheme a -order 2 -ptmax 500.01 -fixed_order 3 -small-r -R0 2.0
# process = H    
# collider = pp   
# rts =  13000.000
# M   =    125.000
# muR =    125.000
# muF =    125.000
# Q   =     31.250
# p   =      5.000
# include_c1_squared =   F
# loop_mass  = none
# alphas(MZ) =    0.11800
# alphas(M) =    0.11264
# alphas(muR) =    0.11264
# Rjet =      0.400
# order = NNLL
# pdf name and set = PDF4LHC15_nnlo_mc.LHgrid,    0
# matching scheme = a
# total cross sections [nb] at LO, NLOdiff, NNLOdiff, N3LOdiff =     0.012945    0.016716    0.010146    0.003834
#----------------------------------------------------------------------
# the lines that follow give the jet-veto efficiencies as a function of pt
#         pt            matched eff      resummed eff     fixed-order eff
   2.00000000E+001   4.59651448E-001   5.38145023E-001   4.60774143E-001
   2.50000000E+001   5.44423965E-001   6.09325295E-001   5.45786875E-001
   3.00000000E+001   6.15750712E-001   6.51182412E-001   6.17068533E-001
   3.50000000E+001   6.71209066E-001   6.73959853E-001   6.72113648E-001
   4.00000000E+001   7.16077304E-001   6.85924452E-001   7.16667414E-001
   4.50000000E+001   7.52491939E-001   6.92247503E-001   7.52873009E-001
   5.00000000E+001   7.83308449E-001   6.95691722E-001   7.83562730E-001
   5.50000000E+001   8.09609373E-001   6.97643192E-001   8.09784074E-001
   6.00000000E+001   8.31749872E-001   6.98794407E-001   8.31871310E-001
   6.50000000E+001   8.51512116E-001   6.99499735E-001   8.51599627E-001
   7.00000000E+001   8.68155604E-001   6.99946938E-001   8.68219188E-001
   7.50000000E+001   8.81969648E-001   7.00239283E-001   8.82015993E-001
   8.00000000E+001   8.94090702E-001   7.00435657E-001   8.94125116E-001
   8.50000000E+001   9.05043062E-001   7.00570790E-001   9.05069202E-001
   9.00000000E+001   9.14404603E-001   7.00665807E-001   9.14424589E-001
   9.50000000E+001   9.22968215E-001   7.00733917E-001   9.22983790E-001
   1.00000000E+002   9.30110454E-001   7.00783594E-001   9.30122626E-001
   1.05000000E+002   9.36519786E-001   7.00820398E-001   9.36529413E-001
   1.10000000E+002   9.42309416E-001   7.00848056E-001   9.42317122E-001
   1.15000000E+002   9.47492779E-001   7.00869111E-001   9.47498999E-001
   1.20000000E+002   9.52007631E-001   7.00885330E-001   9.52012685E-001
   1.25000000E+002   9.55909074E-001   7.00897960E-001   9.55913202E-001
   1.30000000E+002   9.59809789E-001   7.00907894E-001   9.59813209E-001
   1.35000000E+002   9.63251840E-001   7.00915780E-001   9.63254687E-001
   1.40000000E+002   9.66124406E-001   7.00922094E-001   9.66126784E-001
   1.45000000E+002   9.68887493E-001   7.00927190E-001   9.68889494E-001
   1.50000000E+002   9.71223667E-001   7.00931332E-001   9.71225357E-001
   1.55000000E+002   9.73730363E-001   7.00934724E-001   9.73731807E-001
   1.60000000E+002   9.75443121E-001   7.00937518E-001   9.75444349E-001
   1.65000000E+002   9.77282233E-001   7.00939835E-001   9.77283286E-001
   1.70000000E+002   9.78903713E-001   7.00941766E-001   9.78904621E-001
   1.75000000E+002   9.80485060E-001   7.00943385E-001   9.80485847E-001
   1.80000000E+002   9.81940504E-001   7.00944748E-001   9.81941189E-001
   1.85000000E+002   9.83250529E-001   7.00945903E-001   9.83251126E-001
   1.90000000E+002   9.84170003E-001   7.00946884E-001   9.84170523E-001
   1.95000000E+002   9.85361855E-001   7.00947722E-001   9.85362313E-001
   2.00000000E+002   9.86383002E-001   7.00948440E-001   9.86383405E-001
   2.05000000E+002   9.87259709E-001   7.00949059E-001   9.87260065E-001
   2.10000000E+002   9.88055979E-001   7.00949593E-001   9.88056295E-001
   2.15000000E+002   9.88933943E-001   7.00950056E-001   9.88934225E-001
   2.20000000E+002   9.89579486E-001   7.00950458E-001   9.89579737E-001
   2.25000000E+002   9.90260929E-001   7.00950810E-001   9.90261153E-001
   2.30000000E+002   9.90900720E-001   7.00951117E-001   9.90900921E-001
   2.35000000E+002   9.91501625E-001   7.00951387E-001   9.91501805E-001
   2.40000000E+002   9.91923098E-001   7.00951624E-001   9.91923260E-001
   2.45000000E+002   9.92472865E-001   7.00951834E-001   9.92473011E-001
