# ./jetvheto -in n3lo-fixed-order/H125-LHC13-R04-heft-xmur100-xmuf100-log.fxd -xQ 0.25 -out benchmarks-n3lo-smallR/H125-LHC13-R04-heft-xmur100-xmuf100-xQ025-N3LO+NNLLb.R0-1.5.res -scheme b -order 2 -ptmax 500.01 -fixed_order 3 -small-r -R0 1.5
# process = H    
# collider = pp   
# rts =  13000.000
# M   =    125.000
# muR =    125.000
# muF =    125.000
# Q   =     31.250
# p   =      5.000
# include_c1_squared =   F
# loop_mass  = none
# alphas(MZ) =    0.11800
# alphas(M) =    0.11264
# alphas(muR) =    0.11264
# Rjet =      0.400
# order = NNLL
# pdf name and set = PDF4LHC15_nnlo_mc.LHgrid,    0
# matching scheme = b
# total cross sections [nb] at LO, NLOdiff, NNLOdiff, N3LOdiff =     0.012945    0.016716    0.010146    0.003834
#----------------------------------------------------------------------
# the lines that follow give the jet-veto efficiencies as a function of pt
#         pt            matched eff      resummed eff     fixed-order eff
   2.00000000E+001   4.27677080E-001   5.37151670E-001   4.08842854E-001
   2.50000000E+001   5.11707364E-001   6.08765682E-001   5.02042917E-001
   3.00000000E+001   5.84748079E-001   6.50879664E-001   5.80189507E-001
   3.50000000E+001   6.42777488E-001   6.73796267E-001   6.40535859E-001
   4.00000000E+001   6.90524623E-001   6.85833593E-001   6.89380469E-001
   4.50000000E+001   7.29688831E-001   6.92194945E-001   7.29072921E-001
   5.00000000E+001   7.63062438E-001   6.95659981E-001   7.62718280E-001
   5.50000000E+001   7.91664383E-001   6.97623232E-001   7.91464926E-001
   6.00000000E+001   8.15800719E-001   6.98781392E-001   8.15679320E-001
   6.50000000E+001   8.37382780E-001   6.99490973E-001   8.37307615E-001
   7.00000000E+001   8.55576365E-001   6.99940871E-001   8.55527758E-001
   7.50000000E+001   8.70686349E-001   7.00234978E-001   8.70653294E-001
   8.00000000E+001   8.83951636E-001   7.00432535E-001   8.83928611E-001
   8.50000000E+001   8.95942900E-001   7.00568483E-001   8.95926690E-001
   9.00000000E+001   9.06194867E-001   7.00664072E-001   9.06183068E-001
   9.50000000E+001   9.15575224E-001   7.00732592E-001   9.15566581E-001
   1.00000000E+002   9.23399489E-001   7.00782568E-001   9.23392937E-001
   1.05000000E+002   9.30421774E-001   7.00819595E-001   9.30416744E-001
   1.10000000E+002   9.36765749E-001   7.00847419E-001   9.36761850E-001
   1.15000000E+002   9.42445843E-001   7.00868601E-001   9.42442779E-001
   1.20000000E+002   9.47393611E-001   7.00884917E-001   9.47391165E-001
   1.25000000E+002   9.51669315E-001   7.00897624E-001   9.51667329E-001
   1.30000000E+002   9.55944536E-001   7.00907618E-001   9.55942935E-001
   1.35000000E+002   9.59717159E-001   7.00915551E-001   9.59715852E-001
   1.40000000E+002   9.62865637E-001   7.00921903E-001   9.62864552E-001
   1.45000000E+002   9.65894234E-001   7.00927029E-001   9.65893331E-001
   1.50000000E+002   9.68454915E-001   7.00931197E-001   9.68454154E-001
   1.55000000E+002   9.71202628E-001   7.00934609E-001   9.71201993E-001
   1.60000000E+002   9.73080011E-001   7.00937421E-001   9.73079465E-001
   1.65000000E+002   9.75095972E-001   7.00939751E-001   9.75095505E-001
   1.70000000E+002   9.76873388E-001   7.00941694E-001   9.76872986E-001
   1.75000000E+002   9.78606841E-001   7.00943322E-001   9.78606495E-001
   1.80000000E+002   9.80202296E-001   7.00944694E-001   9.80201996E-001
   1.85000000E+002   9.81638350E-001   7.00945855E-001   9.81638090E-001
   1.90000000E+002   9.82646262E-001   7.00946842E-001   9.82646032E-001
   1.95000000E+002   9.83952801E-001   7.00947685E-001   9.83952600E-001
   2.00000000E+002   9.85072207E-001   7.00948408E-001   9.85072030E-001
   2.05000000E+002   9.86033275E-001   7.00949030E-001   9.86033119E-001
   2.10000000E+002   9.86906170E-001   7.00949567E-001   9.86906031E-001
   2.15000000E+002   9.87868635E-001   7.00950033E-001   9.87868512E-001
   2.20000000E+002   9.88576301E-001   7.00950438E-001   9.88576191E-001
   2.25000000E+002   9.89323331E-001   7.00950792E-001   9.89323232E-001
   2.30000000E+002   9.90024702E-001   7.00951101E-001   9.90024614E-001
   2.35000000E+002   9.90683448E-001   7.00951373E-001   9.90683369E-001
   2.40000000E+002   9.91145484E-001   7.00951612E-001   9.91145412E-001
   2.45000000E+002   9.91748173E-001   7.00951822E-001   9.91748108E-001
