# ./jetvheto -in n3lo-fixed-order/H125-LHC13-R04-heft-xmur050-xmuf050-log.fxd -xQ 0.25 -out benchmarks-n3lo-smallR/H125-LHC13-R04-heft-xmur050-xmuf050-xQ025-NNLO+NNLLa.R0-2.0.res -scheme a -order 2 -ptmax 500.01 -fixed_order 2 -small-r -R0 2.0
# process = H    
# collider = pp   
# rts =  13000.000
# M   =    125.000
# muR =     62.500
# muF =     62.500
# Q   =     31.250
# p   =      5.000
# include_c1_squared =   F
# loop_mass  = none
# alphas(MZ) =    0.11800
# alphas(M) =    0.11264
# alphas(muR) =    0.12516
# Rjet =      0.400
# order = NNLL
# pdf name and set = PDF4LHC15_nnlo_mc.LHgrid,    0
# matching scheme = a
# total cross sections [nb] at LO, NLOdiff, NNLOdiff, N3LOdiff =     0.015055    0.019611    0.008998    0.001413
#----------------------------------------------------------------------
# the lines that follow give the jet-veto efficiencies as a function of pt
#         pt            matched eff      resummed eff     fixed-order eff
   2.00000000E+001   4.59780746E-001   4.94605348E-001   4.60803594E-001
   2.50000000E+001   5.44923353E-001   5.62556567E-001   5.46887027E-001
   3.00000000E+001   6.12439262E-001   6.02806172E-001   6.14137214E-001
   3.50000000E+001   6.66454468E-001   6.24825180E-001   6.67697748E-001
   4.00000000E+001   7.10518647E-001   6.36429788E-001   7.11386119E-001
   4.50000000E+001   7.46973061E-001   6.42574216E-001   7.47572136E-001
   5.00000000E+001   7.77527869E-001   6.45924781E-001   7.77943884E-001
   5.50000000E+001   8.03377479E-001   6.47824378E-001   8.03669340E-001
   6.00000000E+001   8.25362326E-001   6.48945404E-001   8.25569926E-001
   6.50000000E+001   8.44316486E-001   6.49632389E-001   8.44466421E-001
   7.00000000E+001   8.60794286E-001   6.50068023E-001   8.60904291E-001
   7.50000000E+001   8.75025821E-001   6.50352830E-001   8.75107581E-001
   8.00000000E+001   8.87521558E-001   6.50544152E-001   8.87583197E-001
   8.50000000E+001   8.98528334E-001   6.50675815E-001   8.98575401E-001
   9.00000000E+001   9.08257905E-001   6.50768393E-001   9.08294278E-001
   9.50000000E+001   9.16803456E-001   6.50834757E-001   9.16831850E-001
   1.00000000E+002   9.24413857E-001   6.50883161E-001   9.24436265E-001
   1.05000000E+002   9.31147053E-001   6.50919023E-001   9.31164894E-001
   1.10000000E+002   9.37193935E-001   6.50945972E-001   9.37208272E-001
   1.15000000E+002   9.42583832E-001   6.50966488E-001   9.42595447E-001
   1.20000000E+002   9.47441848E-001   6.50982292E-001   9.47451332E-001
   1.25000000E+002   9.51818890E-001   6.50994599E-001   9.51826691E-001
   1.30000000E+002   9.55733521E-001   6.51004279E-001   9.55739978E-001
   1.35000000E+002   9.59294774E-001   6.51011963E-001   9.59300155E-001
   1.40000000E+002   9.62520646E-001   6.51018116E-001   9.62525156E-001
   1.45000000E+002   9.65412540E-001   6.51023081E-001   9.65416341E-001
   1.50000000E+002   9.68070232E-001   6.51027118E-001   9.68073453E-001
   1.55000000E+002   9.70466822E-001   6.51030422E-001   9.70469565E-001
   1.60000000E+002   9.72670607E-001   6.51033145E-001   9.72672954E-001
   1.65000000E+002   9.74657598E-001   6.51035403E-001   9.74659615E-001
   1.70000000E+002   9.76496454E-001   6.51037285E-001   9.76498194E-001
   1.75000000E+002   9.78191492E-001   6.51038862E-001   9.78193000E-001
   1.80000000E+002   9.79722407E-001   6.51040190E-001   9.79723719E-001
   1.85000000E+002   9.81135115E-001   6.51041315E-001   9.81136260E-001
   1.90000000E+002   9.82437888E-001   6.51042271E-001   9.82438890E-001
   1.95000000E+002   9.83624712E-001   6.51043088E-001   9.83625593E-001
   2.00000000E+002   9.84719915E-001   6.51043788E-001   9.84720691E-001
   2.05000000E+002   9.85742666E-001   6.51044390E-001   9.85743353E-001
   2.10000000E+002   9.86672108E-001   6.51044911E-001   9.86672717E-001
   2.15000000E+002   9.87544499E-001   6.51045362E-001   9.87545040E-001
   2.20000000E+002   9.88352215E-001   6.51045754E-001   9.88352698E-001
   2.25000000E+002   9.89076408E-001   6.51046097E-001   9.89076840E-001
   2.30000000E+002   9.89791231E-001   6.51046396E-001   9.89791617E-001
   2.35000000E+002   9.90421491E-001   6.51046659E-001   9.90421838E-001
   2.40000000E+002   9.91018695E-001   6.51046891E-001   9.91019008E-001
   2.45000000E+002   9.91573825E-001   6.51047095E-001   9.91574107E-001
