# ./jetvheto -in n3lo-fixed-order/H125-LHC13-R04-heft-xmur200-xmuf200-log.fxd -xQ 0.50 -out benchmarks-n3lo-smallR/H125-LHC13-R04-heft-xmur200-xmuf200-xQ050-NNLO+NNLLa.res -scheme a -order 2 -ptmax 500.01 -fixed_order 2
# process = H    
# collider = pp   
# rts =  13000.000
# M   =    125.000
# muR =    250.000
# muF =    250.000
# Q   =     62.500
# p   =      5.000
# include_c1_squared =   F
# loop_mass  = none
# alphas(MZ) =    0.11800
# alphas(M) =    0.11264
# alphas(muR) =    0.10244
# Rjet =      0.400
# order = NNLL
# pdf name and set = PDF4LHC15_nnlo_mc.LHgrid,    0
# matching scheme = a
# total cross sections [nb] at LO, NLOdiff, NNLOdiff, N3LOdiff =     0.011138    0.014625    0.010464    0.005358
#----------------------------------------------------------------------
# the lines that follow give the jet-veto efficiencies as a function of pt
#         pt            matched eff      resummed eff     fixed-order eff
   2.00000000E+001   5.05251935E-001   5.37903960E-001   5.45530343E-001
   2.50000000E+001   5.94536803E-001   6.22206532E-001   6.21569767E-001
   3.00000000E+001   6.63298135E-001   6.81914876E-001   6.79278426E-001
   3.50000000E+001   7.16726588E-001   7.23682073E-001   7.24609623E-001
   4.00000000E+001   7.58603624E-001   7.52355133E-001   7.61102131E-001
   4.50000000E+001   7.91921727E-001   7.71532869E-001   7.91214011E-001
   5.00000000E+001   8.18532287E-001   7.83963054E-001   8.16193950E-001
   5.50000000E+001   8.40261258E-001   7.91761059E-001   8.37331968E-001
   6.00000000E+001   8.58192967E-001   7.96515341E-001   8.55272964E-001
   6.50000000E+001   8.73273365E-001   7.99357180E-001   8.70655564E-001
   7.00000000E+001   8.86230610E-001   8.01042282E-001   8.84015287E-001
   7.50000000E+001   8.97410554E-001   8.02045524E-001   8.95595630E-001
   8.00000000E+001   9.07248756E-001   8.02651475E-001   9.05787549E-001
   8.50000000E+001   9.15857384E-001   8.03025589E-001   9.14690453E-001
   9.00000000E+001   9.23528351E-001   8.03262779E-001   9.22598473E-001
   9.50000000E+001   9.30314617E-001   8.03417479E-001   9.29572556E-001
   1.00000000E+002   9.36305539E-001   8.03521287E-001   9.35711186E-001
   1.05000000E+002   9.41734005E-001   8.03592883E-001   9.41255499E-001
   1.10000000E+002   9.46598043E-001   8.03643522E-001   9.46210551E-001
   1.15000000E+002   9.50949669E-001   8.03680166E-001   9.50633940E-001
   1.20000000E+002   9.54875168E-001   8.03707229E-001   9.54616293E-001
   1.25000000E+002   9.58398249E-001   8.03727583E-001   9.58184664E-001
   1.30000000E+002   9.61586165E-001   8.03743139E-001   9.61408873E-001
   1.35000000E+002   9.64512477E-001   8.03755199E-001   9.64364440E-001
   1.40000000E+002   9.67153461E-001   8.03764668E-001   9.67029154E-001
   1.45000000E+002   9.69546769E-001   8.03772187E-001   9.69441825E-001
   1.50000000E+002   9.71729590E-001   8.03778219E-001   9.71640538E-001
   1.55000000E+002   9.73722605E-001   8.03783103E-001   9.73646667E-001
   1.60000000E+002   9.75565744E-001   8.03787089E-001   9.75500688E-001
   1.65000000E+002   9.77242183E-001   8.03790368E-001   9.77186203E-001
   1.70000000E+002   9.78774598E-001   8.03793084E-001   9.78726227E-001
   1.75000000E+002   9.80164068E-001   8.03795348E-001   9.80122104E-001
   1.80000000E+002   9.81457421E-001   8.03797246E-001   9.81420877E-001
   1.85000000E+002   9.82659109E-001   8.03798846E-001   9.82627171E-001
   1.90000000E+002   9.83757336E-001   8.03800202E-001   9.83729326E-001
   1.95000000E+002   9.84774928E-001   8.03801357E-001   9.84750283E-001
   2.00000000E+002   9.85705285E-001   8.03802344E-001   9.85683533E-001
   2.05000000E+002   9.86574201E-001   8.03803192E-001   9.86554946E-001
   2.10000000E+002   9.87380742E-001   8.03803924E-001   9.87363648E-001
   2.15000000E+002   9.88131379E-001   8.03804556E-001   9.88116163E-001
   2.20000000E+002   9.88824479E-001   8.03805106E-001   9.88810899E-001
   2.25000000E+002   9.89467139E-001   8.03805585E-001   9.89454988E-001
   2.30000000E+002   9.90072709E-001   8.03806004E-001   9.90061811E-001
   2.35000000E+002   9.90639075E-001   8.03806371E-001   9.90629280E-001
   2.40000000E+002   9.91152559E-001   8.03806694E-001   9.91143734E-001
   2.45000000E+002   9.91643587E-001   8.03806978E-001   9.91635620E-001
