# ./jetvheto -in n3lo-fixed-order/H125-LHC13-R04-mb-475-mt-1725-xmur100-xmuf200-log.fxd -xQ 0.5 -out benchmarks-n3lo-smallR/H125-LHC13-R04-mb-475-mt-1725-xmur100-xmuf200-xQ050-N3LO+NNLLa.R0-1.0.res -scheme a -order 2 -ptmax 500.01 -fixed_order 3 -small-r -loop-mass t+b -R0 1.0
# process = H    
# collider = pp   
# rts =  13000.000
# M   =    125.000
# muR =    125.000
# muF =    250.000
# Q   =     62.500
# p   =      5.000
# include_c1_squared =   F
# loop_mass  = t+b 
# alphas(MZ) =    0.11800
# alphas(M) =    0.11264
# alphas(muR) =    0.11264
# Rjet =      0.400
# order = NNLL
# pdf name and set = PDF4LHC15_nnlo_mc.LHgrid,    0
# matching scheme = a
# total cross sections [nb] at LO, NLOdiff, NNLOdiff, N3LOdiff =     0.012791    0.017144    0.009991    0.003297
#----------------------------------------------------------------------
# the lines that follow give the jet-veto efficiencies as a function of pt
#         pt            matched eff      resummed eff     fixed-order eff
   2.00000000E+001   4.49951605E-001   5.16912884E-001   4.44294678E-001
   2.50000000E+001   5.39284050E-001   5.95029597E-001   5.34693761E-001
   3.00000000E+001   6.08649322E-001   6.49793272E-001   6.03754500E-001
   3.50000000E+001   6.65776887E-001   6.87694374E-001   6.60767062E-001
   4.00000000E+001   7.12239472E-001   7.13399384E-001   7.07312178E-001
   4.50000000E+001   7.49173984E-001   7.30341552E-001   7.44538846E-001
   5.00000000E+001   7.82047389E-001   7.41121640E-001   7.77954575E-001
   5.50000000E+001   8.08200552E-001   7.47725280E-001   8.04708800E-001
   6.00000000E+001   8.30490154E-001   7.51628926E-001   8.27611409E-001
   6.50000000E+001   8.49312271E-001   7.53871344E-001   8.46993784E-001
   7.00000000E+001   8.66731006E-001   7.55135825E-001   8.64890386E-001
   7.50000000E+001   8.80872642E-001   7.55843412E-001   8.79424059E-001
   8.00000000E+001   8.93176025E-001   7.56240238E-001   8.92038991E-001
   8.50000000E+001   9.04260370E-001   7.56465040E-001   9.03366999E-001
   9.00000000E+001   9.13616260E-001   7.56594423E-001   9.12911817E-001
   9.50000000E+001   9.22616229E-001   7.56670345E-001   9.22057521E-001
   1.00000000E+002   9.30082572E-001   7.56715879E-001   9.29637057E-001
   1.05000000E+002   9.36606366E-001   7.56743845E-001   9.36248679E-001
   1.10000000E+002   9.42199905E-001   7.56761438E-001   9.41910806E-001
   1.15000000E+002   9.47651262E-001   7.56772772E-001   9.47415885E-001
   1.20000000E+002   9.52621384E-001   7.56780249E-001   9.52428414E-001
   1.25000000E+002   9.56620245E-001   7.56785296E-001   9.56461113E-001
   1.30000000E+002   9.60528527E-001   7.56788778E-001   9.60396422E-001
   1.35000000E+002   9.63790619E-001   7.56791233E-001   9.63680309E-001
   1.40000000E+002   9.67214285E-001   7.56792997E-001   9.67121607E-001
   1.45000000E+002   9.69790498E-001   7.56794289E-001   9.69712259E-001
   1.50000000E+002   9.72411248E-001   7.56795253E-001   9.72344836E-001
   1.55000000E+002   9.74726870E-001   7.56795983E-001   9.74670228E-001
   1.60000000E+002   9.76710262E-001   7.56796545E-001   9.76661728E-001
   1.65000000E+002   9.78396894E-001   7.56796984E-001   9.78355133E-001
   1.70000000E+002   9.80313233E-001   7.56797330E-001   9.80277133E-001
   1.75000000E+002   9.81807843E-001   7.56797607E-001   9.81776524E-001
   1.80000000E+002   9.83534448E-001   7.56797831E-001   9.83507162E-001
   1.85000000E+002   9.84646117E-001   7.56798013E-001   9.84622271E-001
   1.90000000E+002   9.85842592E-001   7.56798164E-001   9.85821678E-001
   1.95000000E+002   9.86890093E-001   7.56798288E-001   9.86871691E-001
   2.00000000E+002   9.88126434E-001   7.56798393E-001   9.88110187E-001
   2.05000000E+002   9.88878439E-001   7.56798481E-001   9.88864059E-001
   2.10000000E+002   9.89607798E-001   7.56798555E-001   9.89595033E-001
   2.15000000E+002   9.90451719E-001   7.56798619E-001   9.90440354E-001
   2.20000000E+002   9.91235678E-001   7.56798673E-001   9.91225534E-001
   2.25000000E+002   9.91801995E-001   7.56798720E-001   9.91792921E-001
   2.30000000E+002   9.92353058E-001   7.56798760E-001   9.92344919E-001
   2.35000000E+002   9.92953698E-001   7.56798795E-001   9.92946382E-001
   2.40000000E+002   9.93472074E-001   7.56798826E-001   9.93465484E-001
   2.45000000E+002   9.93975494E-001   7.56798853E-001   9.93969545E-001
