# ./jetvheto -in n3lo-fixed-order/H125-LHC13-R04-mb-0-mt-1725-xmur050-xmuf025-log.fxd -xQ 0.25 -out benchmarks-n3lo-smallR/H125-LHC13-R04-mb-0-mt-1725-xmur050-xmuf025-xQ025-N3LO+NNLLa.R0-1.5.res -scheme a -order 2 -ptmax 500.01 -small-r -fixed_order 3 -loop-mass t -R0 1.5
# process = H    
# collider = pp   
# rts =  13000.000
# M   =    125.000
# muR =     62.500
# muF =     31.250
# Q   =     31.250
# p   =      5.000
# include_c1_squared =   F
# loop_mass  = t   
# alphas(MZ) =    0.11800
# alphas(M) =    0.11264
# alphas(muR) =    0.12516
# Rjet =      0.400
# order = NNLL
# pdf name and set = PDF4LHC15_nnlo_mc.LHgrid,    0
# matching scheme = a
# total cross sections [nb] at LO, NLOdiff, NNLOdiff, N3LOdiff =     0.014513    0.020714    0.009723    0.001827
#----------------------------------------------------------------------
# the lines that follow give the jet-veto efficiencies as a function of pt
#         pt            matched eff      resummed eff     fixed-order eff
   2.00000000E+001   4.52235799E-001   4.87403612E-001   4.54817952E-001
   2.50000000E+001   5.42131482E-001   5.58309444E-001   5.43977450E-001
   3.00000000E+001   6.12886658E-001   6.00618418E-001   6.13968468E-001
   3.50000000E+001   6.69489569E-001   6.23875622E-001   6.70085613E-001
   4.00000000E+001   7.16053183E-001   6.36169154E-001   7.16401980E-001
   4.50000000E+001   7.54954603E-001   6.42690018E-001   7.55172391E-001
   5.00000000E+001   7.87324149E-001   6.46249470E-001   7.87462018E-001
   5.50000000E+001   8.15411905E-001   6.48268670E-001   8.15506260E-001
   6.00000000E+001   8.38615138E-001   6.49460687E-001   8.38678261E-001
   6.50000000E+001   8.57300474E-001   6.50191328E-001   8.57340945E-001
   7.00000000E+001   8.74676404E-001   6.50654705E-001   8.74705056E-001
   7.50000000E+001   8.89484199E-001   6.50957676E-001   8.89504737E-001
   8.00000000E+001   9.01840095E-001   6.51161211E-001   9.01854513E-001
   8.50000000E+001   9.13108405E-001   6.51301283E-001   9.13119046E-001
   9.00000000E+001   9.23004189E-001   6.51399778E-001   9.23012141E-001
   9.50000000E+001   9.30416895E-001   6.51470384E-001   9.30422504E-001
   1.00000000E+002   9.38475481E-001   6.51521883E-001   9.38479882E-001
   1.05000000E+002   9.44702233E-001   6.51560038E-001   9.44705520E-001
   1.10000000E+002   9.50988715E-001   6.51588711E-001   9.50991334E-001
   1.15000000E+002   9.56414621E-001   6.51610539E-001   9.56416694E-001
   1.20000000E+002   9.60723655E-001   6.51627354E-001   9.60725255E-001
   1.25000000E+002   9.64430573E-001   6.51640448E-001   9.64431814E-001
   1.30000000E+002   9.68233863E-001   6.51650747E-001   9.68234866E-001
   1.35000000E+002   9.71380469E-001   6.51658923E-001   9.71381270E-001
   1.40000000E+002   9.74348831E-001   6.51665469E-001   9.74349482E-001
   1.45000000E+002   9.77069142E-001   6.51670752E-001   9.77069676E-001
   1.50000000E+002   9.79385174E-001   6.51675047E-001   9.79385612E-001
   1.55000000E+002   9.81509091E-001   6.51678563E-001   9.81509453E-001
   1.60000000E+002   9.83732024E-001   6.51681460E-001   9.83732332E-001
   1.65000000E+002   9.85378169E-001   6.51683862E-001   9.85378426E-001
   1.70000000E+002   9.86737772E-001   6.51685864E-001   9.86737985E-001
   1.75000000E+002   9.88367415E-001   6.51687542E-001   9.88367598E-001
   1.80000000E+002   9.89480319E-001   6.51688956E-001   9.89480472E-001
   1.85000000E+002   9.90749878E-001   6.51690153E-001   9.90750010E-001
   1.90000000E+002   9.91752766E-001   6.51691170E-001   9.91752879E-001
   1.95000000E+002   9.92827138E-001   6.51692039E-001   9.92827236E-001
   2.00000000E+002   9.93584245E-001   6.51692784E-001   9.93584329E-001
   2.05000000E+002   9.94332806E-001   6.51693425E-001   9.94332879E-001
   2.10000000E+002   9.95015313E-001   6.51693979E-001   9.95015376E-001
   2.15000000E+002   9.95765555E-001   6.51694459E-001   9.95765611E-001
   2.20000000E+002   9.96288471E-001   6.51694876E-001   9.96288520E-001
   2.25000000E+002   9.96910783E-001   6.51695240E-001   9.96910826E-001
   2.30000000E+002   9.97350030E-001   6.51695559E-001   9.97350068E-001
   2.35000000E+002   9.97660669E-001   6.51695839E-001   9.97660702E-001
   2.40000000E+002   9.98118064E-001   6.51696085E-001   9.98118094E-001
   2.45000000E+002   9.98503387E-001   6.51696302E-001   9.98503414E-001
