# ./jetvheto -in n3lo-fixed-order/H125-LHC13-R04-mb-475-mt-1725-xmur200-xmuf100-log.fxd -xQ 0.5 -out benchmarks-n3lo-smallR/H125-LHC13-R04-mb-475-mt-1725-xmur200-xmuf100-xQ050-NNLO+NNLLa.R0-0.5.res -scheme a -order 2 -ptmax 500.01 -fixed_order 2 -small-r -loop-mass t+b -R0 0.5
# process = H    
# collider = pp   
# rts =  13000.000
# M   =    125.000
# muR =    250.000
# muF =    125.000
# Q   =     62.500
# p   =      5.000
# include_c1_squared =   F
# loop_mass  = t+b 
# alphas(MZ) =    0.11800
# alphas(M) =    0.11264
# alphas(muR) =    0.10244
# Rjet =      0.400
# order = NNLL
# pdf name and set = PDF4LHC15_nnlo_mc.LHgrid,    0
# matching scheme = a
# total cross sections [nb] at LO, NLOdiff, NNLOdiff, N3LOdiff =     0.010243    0.014468    0.010526    0.005600
#----------------------------------------------------------------------
# the lines that follow give the jet-veto efficiencies as a function of pt
#         pt            matched eff      resummed eff     fixed-order eff
   2.00000000E+001   4.79472055E-001   5.12945832E-001   5.29433236E-001
   2.50000000E+001   5.70280979E-001   5.97032511E-001   6.05818211E-001
   3.00000000E+001   6.41341843E-001   6.57243790E-001   6.64452408E-001
   3.50000000E+001   6.97469583E-001   6.99837971E-001   7.11123136E-001
   4.00000000E+001   7.41869187E-001   7.29442295E-001   7.48917608E-001
   4.50000000E+001   7.77377810E-001   7.49536585E-001   7.80175121E-001
   5.00000000E+001   8.06071275E-001   7.62799713E-001   8.06390774E-001
   5.50000000E+001   8.29475798E-001   7.71308671E-001   8.28537610E-001
   6.00000000E+001   8.48997190E-001   7.76640916E-001   8.47561956E-001
   6.50000000E+001   8.65490427E-001   7.79935957E-001   8.63977779E-001
   7.00000000E+001   8.79584415E-001   7.81967099E-001   8.78193766E-001
   7.50000000E+001   8.91770708E-001   7.83230077E-001   8.90574977E-001
   8.00000000E+001   9.02490060E-001   7.84029267E-001   9.01497366E-001
   8.50000000E+001   9.11859503E-001   7.84546702E-001   9.11050345E-001
   9.00000000E+001   9.20227367E-001   7.84890383E-001   9.19573396E-001
   9.50000000E+001   9.27609929E-001   7.85124632E-001   9.27082751E-001
   1.00000000E+002   9.34196670E-001   7.85288283E-001   9.33771248E-001
   1.05000000E+002   9.40118805E-001   7.85405245E-001   9.39774369E-001
   1.10000000E+002   9.45354758E-001   7.85490576E-001   9.45074658E-001
   1.15000000E+002   9.50113590E-001   7.85553984E-001   9.49884601E-001
   1.20000000E+002   9.54333599E-001   7.85601879E-001   9.54145364E-001
   1.25000000E+002   9.58207400E-001   7.85638586E-001   9.58051762E-001
   1.30000000E+002   9.61694412E-001   7.85667087E-001   9.61564997E-001
   1.35000000E+002   9.64865788E-001   7.85689475E-001   9.64757578E-001
   1.40000000E+002   9.67721890E-001   7.85707247E-001   9.67630916E-001
   1.45000000E+002   9.70357269E-001   7.85721488E-001   9.70280390E-001
   1.50000000E+002   9.72721102E-001   7.85733000E-001   9.72655808E-001
   1.55000000E+002   9.74909238E-001   7.85742379E-001   9.74853517E-001
   1.60000000E+002   9.76884560E-001   7.85750077E-001   9.76836796E-001
   1.65000000E+002   9.78696664E-001   7.85756436E-001   9.78655541E-001
   1.70000000E+002   9.80356902E-001   7.85761724E-001   9.80321351E-001
   1.75000000E+002   9.81861966E-001   7.85766145E-001   9.81831112E-001
   1.80000000E+002   9.83245532E-001   7.85769862E-001   9.83218654E-001
   1.85000000E+002   9.84513649E-001   7.85773003E-001   9.84490151E-001
   1.90000000E+002   9.85679887E-001   7.85775670E-001   9.85659275E-001
   1.95000000E+002   9.86767199E-001   7.85777945E-001   9.86749058E-001
   2.00000000E+002   9.87754615E-001   7.85779893E-001   9.87738601E-001
   2.05000000E+002   9.88670932E-001   7.85781568E-001   9.88656754E-001
   2.10000000E+002   9.89509442E-001   7.85783014E-001   9.89496854E-001
   2.15000000E+002   9.90267256E-001   7.85784266E-001   9.90256049E-001
   2.20000000E+002   9.90980172E-001   7.85785355E-001   9.90970169E-001
   2.25000000E+002   9.91633577E-001   7.85786304E-001   9.91624627E-001
   2.30000000E+002   9.92236300E-001   7.85787135E-001   9.92228272E-001
   2.35000000E+002   9.92798218E-001   7.85787863E-001   9.92791002E-001
   2.40000000E+002   9.93305966E-001   7.85788504E-001   9.93299464E-001
   2.45000000E+002   9.93786511E-001   7.85789070E-001   9.93780642E-001
