# ./jetvheto -in n3lo-fixed-order/H125-LHC13-R04-mb-475-mt-1725-xmur025-xmuf025-log.fxd -xQ 0.0625 -out benchmarks-n3lo-smallR/H125-LHC13-R04-mb-475-mt-1725-xmur025-xmuf025-xQ0625-N3LO+NNLLb.res -scheme b -order 2 -ptmax 500.01 -fixed_order 3 -loop-mass t+b
# process = H    
# collider = pp   
# rts =  13000.000
# M   =    125.000
# muR =     31.250
# muF =     31.250
# Q   =      7.812
# p   =      5.000
# include_c1_squared =   F
# loop_mass  = t+b 
# alphas(MZ) =    0.11800
# alphas(M) =    0.11264
# alphas(muR) =    0.14091
# Rjet =      0.400
# order = NNLL
# pdf name and set = PDF4LHC15_nnlo_mc.LHgrid,    0
# matching scheme = b
# total cross sections [nb] at LO, NLOdiff, NNLOdiff, N3LOdiff =     0.016156    0.025248    0.006043   -0.002471
#----------------------------------------------------------------------
# the lines that follow give the jet-veto efficiencies as a function of pt
#         pt            matched eff      resummed eff     fixed-order eff
   2.00000000E+001   4.73166484E-001   4.79759448E-002   4.73361890E-001
   2.50000000E+001   5.57843542E-001   4.81378494E-002   5.57907042E-001
   3.00000000E+001   6.24988373E-001   4.81852893E-002   6.25013535E-001
   3.50000000E+001   6.79161847E-001   4.82024438E-002   6.79173210E-001
   4.00000000E+001   7.24619264E-001   4.82096427E-002   7.24625035E-001
   4.50000000E+001   7.63368296E-001   4.82130174E-002   7.63371502E-001
   5.00000000E+001   7.95493352E-001   4.82147407E-002   7.95495231E-001
   5.50000000E+001   8.24103745E-001   4.82156828E-002   8.24104927E-001
   6.00000000E+001   8.47183293E-001   4.82162271E-002   8.47184049E-001
   6.50000000E+001   8.64770418E-001   4.82165565E-002   8.64770902E-001
   7.00000000E+001   8.82252926E-001   4.82167638E-002   8.82253257E-001
   7.50000000E+001   8.96997631E-001   4.82168986E-002   8.96997862E-001
   8.00000000E+001   9.08743086E-001   4.82169889E-002   9.08743249E-001
   8.50000000E+001   9.19995085E-001   4.82170509E-002   9.19995203E-001
   9.00000000E+001   9.29749409E-001   4.82170944E-002   9.29749497E-001
   9.50000000E+001   9.36069813E-001   4.82171255E-002   9.36069876E-001
   1.00000000E+002   9.44236115E-001   4.82171482E-002   9.44236164E-001
   1.05000000E+002   9.49843029E-001   4.82171651E-002   9.49843066E-001
   1.10000000E+002   9.56199615E-001   4.82171777E-002   9.56199645E-001
   1.15000000E+002   9.61473648E-001   4.82171873E-002   9.61473671E-001
   1.20000000E+002   9.65259415E-001   4.82171947E-002   9.65259433E-001
   1.25000000E+002   9.68455862E-001   4.82172005E-002   9.68455876E-001
   1.30000000E+002   9.72106931E-001   4.82172050E-002   9.72106942E-001
   1.35000000E+002   9.74902921E-001   4.82172086E-002   9.74902930E-001
   1.40000000E+002   9.77626835E-001   4.82172115E-002   9.77626842E-001
   1.45000000E+002   9.80155850E-001   4.82172138E-002   9.80155857E-001
   1.50000000E+002   9.82224906E-001   4.82172157E-002   9.82224912E-001
   1.55000000E+002   9.84142809E-001   4.82172172E-002   9.84142813E-001
   1.60000000E+002   9.86393030E-001   4.82172185E-002   9.86393034E-001
   1.65000000E+002   9.87760896E-001   4.82172196E-002   9.87760899E-001
   1.70000000E+002   9.88800094E-001   4.82172204E-002   9.88800097E-001
   1.75000000E+002   9.90432462E-001   4.82172212E-002   9.90432465E-001
   1.80000000E+002   9.91242594E-001   4.82172218E-002   9.91242596E-001
   1.85000000E+002   9.92453703E-001   4.82172223E-002   9.92453704E-001
   1.90000000E+002   9.93269548E-001   4.82172228E-002   9.93269549E-001
   1.95000000E+002   9.94284357E-001   4.82172231E-002   9.94284359E-001
   2.00000000E+002   9.94842427E-001   4.82172235E-002   9.94842428E-001
   2.05000000E+002   9.95432371E-001   4.82172238E-002   9.95432372E-001
   2.10000000E+002   9.95956132E-001   4.82172240E-002   9.95956133E-001
   2.15000000E+002   9.96710400E-001   4.82172242E-002   9.96710401E-001
   2.20000000E+002   9.97087927E-001   4.82172244E-002   9.97087928E-001
   2.25000000E+002   9.97667514E-001   4.82172246E-002   9.97667515E-001
   2.30000000E+002   9.97992940E-001   4.82172247E-002   9.97992941E-001
   2.35000000E+002   9.98142577E-001   4.82172248E-002   9.98142577E-001
   2.40000000E+002   9.98587740E-001   4.82172249E-002   9.98587740E-001
   2.45000000E+002   9.98910615E-001   4.82172250E-002   9.98910616E-001
