# ./jetvheto -in n3lo-fixed-order/H125-LHC13-R04-mb-0-mt-1725-xmur200-xmuf100-log.fxd -xQ 0.25 -out benchmarks-n3lo-smallR/H125-LHC13-R04-mb-0-mt-1725-xmur200-xmuf100-xQ025-NNLO+NNLLa.R0-1.0.res -scheme a -order 2 -ptmax 500.01 -small-r -fixed_order 2 -loop-mass t -R0 1.0
# process = H    
# collider = pp   
# rts =  13000.000
# M   =    125.000
# muR =    250.000
# muF =    125.000
# Q   =     31.250
# p   =      5.000
# include_c1_squared =   F
# loop_mass  = t   
# alphas(MZ) =    0.11800
# alphas(M) =    0.11264
# alphas(muR) =    0.10244
# Rjet =      0.400
# order = NNLL
# pdf name and set = PDF4LHC15_nnlo_mc.LHgrid,    0
# matching scheme = a
# total cross sections [nb] at LO, NLOdiff, NNLOdiff, N3LOdiff =     0.011501    0.015066    0.010526    0.005600
#----------------------------------------------------------------------
# the lines that follow give the jet-veto efficiencies as a function of pt
#         pt            matched eff      resummed eff     fixed-order eff
   2.00000000E+001   5.19762262E-001   5.75447431E-001   5.46775556E-001
   2.50000000E+001   6.05644270E-001   6.51211429E-001   6.22665977E-001
   3.00000000E+001   6.70269393E-001   6.95711541E-001   6.80366203E-001
   3.50000000E+001   7.19934354E-001   7.19907442E-001   7.25868363E-001
   4.00000000E+001   7.59070175E-001   7.32610629E-001   7.62627000E-001
   4.50000000E+001   7.90521017E-001   7.39322007E-001   7.92719035E-001
   5.00000000E+001   8.16440726E-001   7.42977132E-001   8.17844948E-001
   5.50000000E+001   8.38084897E-001   7.45047899E-001   8.39010620E-001
   6.00000000E+001   8.56461635E-001   7.46269421E-001   8.57089921E-001
   6.50000000E+001   8.72195568E-001   7.47017798E-001   8.72633098E-001
   7.00000000E+001   8.85693562E-001   7.47492286E-001   8.86005250E-001
   7.50000000E+001   8.97509898E-001   7.47802463E-001   8.97736538E-001
   8.00000000E+001   9.07847816E-001   7.48010813E-001   9.08015650E-001
   8.50000000E+001   9.16881614E-001   7.48154187E-001   9.17007918E-001
   9.00000000E+001   9.24864639E-001   7.48254998E-001   9.24961112E-001
   9.50000000E+001   9.31899462E-001   7.48327260E-001   9.31974125E-001
   1.00000000E+002   9.38182601E-001   7.48379966E-001   9.38241085E-001
   1.05000000E+002   9.43785704E-001   7.48419015E-001   9.43832023E-001
   1.10000000E+002   9.48740535E-001   7.48448359E-001   9.48777585E-001
   1.15000000E+002   9.53237336E-001   7.48470697E-001   9.53267251E-001
   1.20000000E+002   9.57255710E-001   7.48487905E-001   9.57280069E-001
   1.25000000E+002   9.60888692E-001   7.48501305E-001   9.60908684E-001
   1.30000000E+002   9.64181469E-001   7.48511845E-001   9.64197997E-001
   1.35000000E+002   9.67139771E-001   7.48520212E-001   9.67153529E-001
   1.40000000E+002   9.69830056E-001   7.48526911E-001   9.69841579E-001
   1.45000000E+002   9.72293468E-001   7.48532317E-001   9.72303178E-001
   1.50000000E+002   9.74503099E-001   7.48536712E-001   9.74511326E-001
   1.55000000E+002   9.76547733E-001   7.48540310E-001   9.76554739E-001
   1.60000000E+002   9.78412690E-001   7.48543275E-001   9.78418687E-001
   1.65000000E+002   9.80105143E-001   7.48545733E-001   9.80110300E-001
   1.70000000E+002   9.81658557E-001   7.48547782E-001   9.81663010E-001
   1.75000000E+002   9.83059220E-001   7.48549499E-001   9.83063080E-001
   1.80000000E+002   9.84357680E-001   7.48550946E-001   9.84361040E-001
   1.85000000E+002   9.85538742E-001   7.48552171E-001   9.85541678E-001
   1.90000000E+002   9.86632534E-001   7.48553212E-001   9.86635108E-001
   1.95000000E+002   9.87641715E-001   7.48554101E-001   9.87643979E-001
   2.00000000E+002   9.88559234E-001   7.48554863E-001   9.88561232E-001
   2.05000000E+002   9.89415383E-001   7.48555519E-001   9.89417151E-001
   2.10000000E+002   9.90190619E-001   7.48556086E-001   9.90192188E-001
   2.15000000E+002   9.90900935E-001   7.48556577E-001   9.90902332E-001
   2.20000000E+002   9.91564955E-001   7.48557004E-001   9.91566202E-001
   2.25000000E+002   9.92173692E-001   7.48557377E-001   9.92174807E-001
   2.30000000E+002   9.92737853E-001   7.48557703E-001   9.92738853E-001
   2.35000000E+002   9.93265412E-001   7.48557989E-001   9.93266311E-001
   2.40000000E+002   9.93741587E-001   7.48558241E-001   9.93742396E-001
   2.45000000E+002   9.94188277E-001   7.48558464E-001   9.94189007E-001
