# ./jetvheto -in n3lo-fixed-order/H125-LHC13-R04-mb-475-mt-1725-xmur100-xmuf100-log.fxd -xQ 0.03125 -out benchmarks-n3lo-smallR/H125-LHC13-R04-mb-475-mt-1725-xmur100-xmuf100-xQ03125-N3LO+NNLLa.R0-1.5.res -scheme a -order 2 -ptmax 500.01 -fixed_order 3 -small-r -loop-mass t+b -R0 1.5
# process = H    
# collider = pp   
# rts =  13000.000
# M   =    125.000
# muR =    125.000
# muF =    125.000
# Q   =      3.906
# p   =      5.000
# include_c1_squared =   F
# loop_mass  = t+b 
# alphas(MZ) =    0.11800
# alphas(M) =    0.11264
# alphas(muR) =    0.11264
# Rjet =      0.400
# order = NNLL
# pdf name and set = PDF4LHC15_nnlo_mc.LHgrid,    0
# matching scheme = a
# total cross sections [nb] at LO, NLOdiff, NNLOdiff, N3LOdiff =     0.012292    0.016994    0.010146    0.003834
#----------------------------------------------------------------------
# the lines that follow give the jet-veto efficiencies as a function of pt
#         pt            matched eff      resummed eff     fixed-order eff
   2.00000000E+001   4.51317298E-001  -5.50479179E-002   4.51319368E-001
   2.50000000E+001   5.36824307E-001  -5.50492104E-002   5.36825698E-001
   3.00000000E+001   6.08857808E-001  -5.50495872E-002   6.08858675E-001
   3.50000000E+001   6.64947033E-001  -5.50497232E-002   6.64947540E-001
   4.00000000E+001   7.10355475E-001  -5.50497803E-002   7.10355778E-001
   4.50000000E+001   7.47456400E-001  -5.50498070E-002   7.47456588E-001
   5.00000000E+001   7.78977984E-001  -5.50498207E-002   7.78978104E-001
   5.50000000E+001   8.05930740E-001  -5.50498281E-002   8.05930820E-001
   6.00000000E+001   8.28717015E-001  -5.50498324E-002   8.28717070E-001
   6.50000000E+001   8.49064278E-001  -5.50498351E-002   8.49064316E-001
   7.00000000E+001   8.66267997E-001  -5.50498367E-002   8.66268025E-001
   7.50000000E+001   8.80530864E-001  -5.50498378E-002   8.80530885E-001
   8.00000000E+001   8.93116372E-001  -5.50498385E-002   8.93116387E-001
   8.50000000E+001   9.04462200E-001  -5.50498390E-002   9.04462211E-001
   9.00000000E+001   9.14193485E-001  -5.50498393E-002   9.14193494E-001
   9.50000000E+001   9.23082473E-001  -5.50498396E-002   9.23082480E-001
   1.00000000E+002   9.30511225E-001  -5.50498397E-002   9.30511231E-001
   1.05000000E+002   9.37200838E-001  -5.50498399E-002   9.37200842E-001
   1.10000000E+002   9.43198466E-001  -5.50498400E-002   9.43198469E-001
   1.15000000E+002   9.48587629E-001  -5.50498401E-002   9.48587632E-001
   1.20000000E+002   9.53237887E-001  -5.50498401E-002   9.53237889E-001
   1.25000000E+002   9.57315269E-001  -5.50498402E-002   9.57315271E-001
   1.30000000E+002   9.61366816E-001  -5.50498402E-002   9.61366818E-001
   1.35000000E+002   9.64936625E-001  -5.50498402E-002   9.64936627E-001
   1.40000000E+002   9.67929189E-001  -5.50498402E-002   9.67929190E-001
   1.45000000E+002   9.70799435E-001  -5.50498403E-002   9.70799436E-001
   1.50000000E+002   9.73231917E-001  -5.50498403E-002   9.73231918E-001
   1.55000000E+002   9.75845039E-001  -5.50498403E-002   9.75845039E-001
   1.60000000E+002   9.77615641E-001  -5.50498403E-002   9.77615642E-001
   1.65000000E+002   9.79523685E-001  -5.50498403E-002   9.79523686E-001
   1.70000000E+002   9.81190792E-001  -5.50498403E-002   9.81190793E-001
   1.75000000E+002   9.82813463E-001  -5.50498403E-002   9.82813463E-001
   1.80000000E+002   9.84292711E-001  -5.50498403E-002   9.84292712E-001
   1.85000000E+002   9.85629591E-001  -5.50498403E-002   9.85629591E-001
   1.90000000E+002   9.86566035E-001  -5.50498403E-002   9.86566035E-001
   1.95000000E+002   9.87769611E-001  -5.50498403E-002   9.87769612E-001
   2.00000000E+002   9.88791277E-001  -5.50498403E-002   9.88791277E-001
   2.05000000E+002   9.89667405E-001  -5.50498403E-002   9.89667405E-001
   2.10000000E+002   9.90458863E-001  -5.50498403E-002   9.90458863E-001
   2.15000000E+002   9.91323305E-001  -5.50498403E-002   9.91323305E-001
   2.20000000E+002   9.91955592E-001  -5.50498403E-002   9.91955592E-001
   2.25000000E+002   9.92619584E-001  -5.50498403E-002   9.92619584E-001
   2.30000000E+002   9.93235932E-001  -5.50498403E-002   9.93235932E-001
   2.35000000E+002   9.93804803E-001  -5.50498403E-002   9.93804803E-001
   2.40000000E+002   9.94192740E-001  -5.50498403E-002   9.94192740E-001
   2.45000000E+002   9.94713610E-001  -5.50498403E-002   9.94713610E-001
