# ./jetvheto -in n3lo-fixed-order/H125-LHC13-R04-mb-0-mt-1725-xmur050-xmuf100-log.fxd -xQ 0.5 -out benchmarks-n3lo-smallR/H125-LHC13-R04-mb-0-mt-1725-xmur050-xmuf100-xQ050-N3LO+NNLLa.res -scheme a -order 2 -ptmax 500.01 -fixed_order 3 -loop-mass t
# process = H    
# collider = pp   
# rts =  13000.000
# M   =    125.000
# muR =     62.500
# muF =    125.000
# Q   =     62.500
# p   =      5.000
# include_c1_squared =   F
# loop_mass  = t   
# alphas(MZ) =    0.11800
# alphas(M) =    0.11264
# alphas(muR) =    0.12516
# Rjet =      0.400
# order = NNLL
# pdf name and set = PDF4LHC15_nnlo_mc.LHgrid,    0
# matching scheme = a
# total cross sections [nb] at LO, NLOdiff, NNLOdiff, N3LOdiff =     0.016868    0.020591    0.008553    0.000949
#----------------------------------------------------------------------
# the lines that follow give the jet-veto efficiencies as a function of pt
#         pt            matched eff      resummed eff     fixed-order eff
   2.00000000E+001   4.66149509E-001   5.08437351E-001   4.55384304E-001
   2.50000000E+001   5.50794002E-001   5.86219827E-001   5.40568007E-001
   3.00000000E+001   6.23540071E-001   6.40664739E-001   6.15061825E-001
   3.50000000E+001   6.79408026E-001   6.78285241E-001   6.71924624E-001
   4.00000000E+001   7.24273148E-001   7.03754314E-001   7.17776886E-001
   4.50000000E+001   7.60225973E-001   7.20511403E-001   7.54726893E-001
   5.00000000E+001   7.90773263E-001   7.31155018E-001   7.86256196E-001
   5.50000000E+001   8.16986273E-001   7.37660769E-001   8.13360155E-001
   6.00000000E+001   8.38852428E-001   7.41495638E-001   8.35982829E-001
   6.50000000E+001   8.58783538E-001   7.43690908E-001   8.56539019E-001
   7.00000000E+001   8.75382023E-001   7.44923352E-001   8.73636697E-001
   7.50000000E+001   8.88835641E-001   7.45609169E-001   8.87481736E-001
   8.00000000E+001   9.00708790E-001   7.45991127E-001   8.99656735E-001
   8.50000000E+001   9.11675553E-001   7.46205596E-001   9.10854774E-001
   9.00000000E+001   9.20822219E-001   7.46327684E-001   9.20178063E-001
   9.50000000E+001   9.29411676E-001   7.46398398E-001   9.28902629E-001
   1.00000000E+002   9.36343212E-001   7.46440160E-001   9.35938367E-001
   1.05000000E+002   9.42593679E-001   7.46465336E-001   9.42269256E-001
   1.10000000E+002   9.48277421E-001   7.46480835E-001   9.48015510E-001
   1.15000000E+002   9.53365282E-001   7.46490578E-001   9.53152280E-001
   1.20000000E+002   9.57719866E-001   7.46496831E-001   9.57545500E-001
   1.25000000E+002   9.61391111E-001   7.46500925E-001   9.61247428E-001
   1.30000000E+002   9.65322945E-001   7.46503659E-001   9.65203712E-001
   1.35000000E+002   9.68696018E-001   7.46505520E-001   9.68596472E-001
   1.40000000E+002   9.71426747E-001   7.46506809E-001   9.71343224E-001
   1.45000000E+002   9.74096873E-001   7.46507719E-001   9.74026360E-001
   1.50000000E+002   9.76286701E-001   7.46508371E-001   9.76226901E-001
   1.55000000E+002   9.78881647E-001   7.46508847E-001   9.78830644E-001
   1.60000000E+002   9.80319434E-001   7.46509199E-001   9.80275773E-001
   1.65000000E+002   9.82074903E-001   7.46509463E-001   9.82037344E-001
   1.70000000E+002   9.83558013E-001   7.46509664E-001   9.83525568E-001
   1.75000000E+002   9.85076707E-001   7.46509820E-001   9.85048566E-001
   1.80000000E+002   9.86461290E-001   7.46509941E-001   9.86436787E-001
   1.85000000E+002   9.87698512E-001   7.46510037E-001   9.87677104E-001
   1.90000000E+002   9.88384827E-001   7.46510114E-001   9.88366066E-001
   1.95000000E+002   9.89530978E-001   7.46510176E-001   9.89514472E-001
   2.00000000E+002   9.90465117E-001   7.46510226E-001   9.90450552E-001
   2.05000000E+002   9.91222714E-001   7.46510268E-001   9.91209825E-001
   2.10000000E+002   9.91895809E-001   7.46510302E-001   9.91884371E-001
   2.15000000E+002   9.92747396E-001   7.46510331E-001   9.92737216E-001
   2.20000000E+002   9.93260572E-001   7.46510355E-001   9.93251490E-001
   2.25000000E+002   9.93864445E-001   7.46510376E-001   9.93856322E-001
   2.30000000E+002   9.94430047E-001   7.46510393E-001   9.94422764E-001
   2.35000000E+002   9.94947869E-001   7.46510408E-001   9.94941324E-001
   2.40000000E+002   9.95221801E-001   7.46510421E-001   9.95215907E-001
   2.45000000E+002   9.95716709E-001   7.46510432E-001   9.95711389E-001
