# ./jetvheto -in n3lo-fixed-order/H125-LHC13-R04-mb-0-mt-1725-xmur100-xmuf100-log.fxd -xQ 0.03125 -out benchmarks-n3lo-smallR/H125-LHC13-R04-mb-0-mt-1725-xmur100-xmuf100-xQ03125-N3LO+NNLLa.R0-0.5.res -scheme a -order 2 -ptmax 500.01 -small-r -fixed_order 3 -loop-mass t -R0 0.5
# process = H    
# collider = pp   
# rts =  13000.000
# M   =    125.000
# muR =    125.000
# muF =    125.000
# Q   =      3.906
# p   =      5.000
# include_c1_squared =   F
# loop_mass  = t   
# alphas(MZ) =    0.11800
# alphas(M) =    0.11264
# alphas(muR) =    0.11264
# Rjet =      0.400
# order = NNLL
# pdf name and set = PDF4LHC15_nnlo_mc.LHgrid,    0
# matching scheme = a
# total cross sections [nb] at LO, NLOdiff, NNLOdiff, N3LOdiff =     0.013801    0.017514    0.010146    0.003834
#----------------------------------------------------------------------
# the lines that follow give the jet-veto efficiencies as a function of pt
#         pt            matched eff      resummed eff     fixed-order eff
   2.00000000E+001   4.70547977E-001  -6.30401456E-002   4.70549319E-001
   2.50000000E+001   5.55097573E-001  -6.30418808E-002   5.55098689E-001
   3.00000000E+001   6.25630766E-001  -6.30423867E-002   6.25631507E-001
   3.50000000E+001   6.80214342E-001  -6.30425693E-002   6.80214785E-001
   4.00000000E+001   7.24326753E-001  -6.30426459E-002   7.24327023E-001
   4.50000000E+001   7.60109312E-001  -6.30426818E-002   7.60109480E-001
   5.00000000E+001   7.90410042E-001  -6.30427002E-002   7.90410150E-001
   5.50000000E+001   8.16264611E-001  -6.30427102E-002   8.16264683E-001
   6.00000000E+001   8.38035626E-001  -6.30427160E-002   8.38035676E-001
   6.50000000E+001   8.57426725E-001  -6.30427195E-002   8.57426760E-001
   7.00000000E+001   8.73744937E-001  -6.30427217E-002   8.73744963E-001
   7.50000000E+001   8.87342311E-001  -6.30427231E-002   8.87342330E-001
   8.00000000E+001   8.99280169E-001  -6.30427241E-002   8.99280183E-001
   8.50000000E+001   9.10046048E-001  -6.30427247E-002   9.10046058E-001
   9.00000000E+001   9.19217304E-001  -6.30427252E-002   9.19217312E-001
   9.50000000E+001   9.27603712E-001  -6.30427255E-002   9.27603719E-001
   1.00000000E+002   9.34624466E-001  -6.30427258E-002   9.34624471E-001
   1.05000000E+002   9.40917657E-001  -6.30427259E-002   9.40917661E-001
   1.10000000E+002   9.46569137E-001  -6.30427261E-002   9.46569141E-001
   1.15000000E+002   9.51647988E-001  -6.30427262E-002   9.51647991E-001
   1.20000000E+002   9.56059804E-001  -6.30427263E-002   9.56059806E-001
   1.25000000E+002   9.59883312E-001  -6.30427263E-002   9.59883314E-001
   1.30000000E+002   9.63711693E-001  -6.30427264E-002   9.63711695E-001
   1.35000000E+002   9.67054717E-001  -6.30427264E-002   9.67054718E-001
   1.40000000E+002   9.69877284E-001  -6.30427264E-002   9.69877285E-001
   1.45000000E+002   9.72571105E-001  -6.30427265E-002   9.72571106E-001
   1.50000000E+002   9.74852733E-001  -6.30427265E-002   9.74852733E-001
   1.55000000E+002   9.77310440E-001  -6.30427265E-002   9.77310440E-001
   1.60000000E+002   9.78984317E-001  -6.30427265E-002   9.78984317E-001
   1.65000000E+002   9.80775627E-001  -6.30427265E-002   9.80775628E-001
   1.70000000E+002   9.82342310E-001  -6.30427265E-002   9.82342311E-001
   1.75000000E+002   9.83862750E-001  -6.30427265E-002   9.83862750E-001
   1.80000000E+002   9.85258286E-001  -6.30427265E-002   9.85258287E-001
   1.85000000E+002   9.86511714E-001  -6.30427266E-002   9.86511714E-001
   1.90000000E+002   9.87391324E-001  -6.30427266E-002   9.87391325E-001
   1.95000000E+002   9.88518161E-001  -6.30427266E-002   9.88518162E-001
   2.00000000E+002   9.89474357E-001  -6.30427266E-002   9.89474357E-001
   2.05000000E+002   9.90297138E-001  -6.30427266E-002   9.90297139E-001
   2.10000000E+002   9.91033226E-001  -6.30427266E-002   9.91033226E-001
   2.15000000E+002   9.91849366E-001  -6.30427266E-002   9.91849366E-001
   2.20000000E+002   9.92440768E-001  -6.30427266E-002   9.92440768E-001
   2.25000000E+002   9.93063675E-001  -6.30427266E-002   9.93063675E-001
   2.30000000E+002   9.93644282E-001  -6.30427266E-002   9.93644282E-001
   2.35000000E+002   9.94181508E-001  -6.30427266E-002   9.94181508E-001
   2.40000000E+002   9.94546063E-001  -6.30427266E-002   9.94546063E-001
   2.45000000E+002   9.95034525E-001  -6.30427266E-002   9.95034525E-001
