# ./jetvheto -in n3lo-fixed-order/H125-LHC13-R04-mb-475-mt-1725-xmur025-xmuf050-log.fxd -xQ 0.0625 -out benchmarks-n3lo-smallR/H125-LHC13-R04-mb-475-mt-1725-xmur025-xmuf050-xQ0625-NNLO+NNLLb.R0-2.0.res -scheme b -order 2 -ptmax 500.01 -fixed_order 2 -small-r -loop-mass t+b -R0 2.0
# process = H    
# collider = pp   
# rts =  13000.000
# M   =    125.000
# muR =     31.250
# muF =     62.500
# Q   =      7.812
# p   =      5.000
# include_c1_squared =   F
# loop_mass  = t+b 
# alphas(MZ) =    0.11800
# alphas(M) =    0.11264
# alphas(muR) =    0.14091
# Rjet =      0.400
# order = NNLL
# pdf name and set = PDF4LHC15_nnlo_mc.LHgrid,    0
# matching scheme = b
# total cross sections [nb] at LO, NLOdiff, NNLOdiff, N3LOdiff =     0.017683    0.024805    0.005009   -0.002663
#----------------------------------------------------------------------
# the lines that follow give the jet-veto efficiencies as a function of pt
#         pt            matched eff      resummed eff     fixed-order eff
   2.00000000E+001   3.45380526E-001   3.95759472E-002   3.45013482E-001
   2.50000000E+001   4.46774149E-001   3.97321901E-002   4.46678028E-001
   3.00000000E+001   5.28174812E-001   3.97779742E-002   5.28145480E-001
   3.50000000E+001   5.94228775E-001   3.97945303E-002   5.94218939E-001
   4.00000000E+001   6.48505159E-001   3.98014781E-002   6.48501749E-001
   4.50000000E+001   6.93919396E-001   3.98047352E-002   6.93918270E-001
   5.00000000E+001   7.32217652E-001   3.98063984E-002   7.32217372E-001
   5.50000000E+001   7.64650910E-001   3.98073076E-002   7.64650938E-001
   6.00000000E+001   7.92386889E-001   3.98078330E-002   7.92387018E-001
   6.50000000E+001   8.16262995E-001   3.98081509E-002   8.16263144E-001
   7.00000000E+001   8.37069743E-001   3.98083509E-002   8.37069884E-001
   7.50000000E+001   8.54982179E-001   3.98084810E-002   8.54982301E-001
   8.00000000E+001   8.70729404E-001   3.98085682E-002   8.70729506E-001
   8.50000000E+001   8.84596109E-001   3.98086280E-002   8.84596193E-001
   9.00000000E+001   8.96748985E-001   3.98086700E-002   8.96749054E-001
   9.50000000E+001   9.07374497E-001   3.98087000E-002   9.07374553E-001
   1.00000000E+002   9.16865829E-001   3.98087220E-002   9.16865875E-001
   1.05000000E+002   9.25226109E-001   3.98087382E-002   9.25226146E-001
   1.10000000E+002   9.32660315E-001   3.98087504E-002   9.32660346E-001
   1.15000000E+002   9.39312526E-001   3.98087596E-002   9.39312551E-001
   1.20000000E+002   9.45247838E-001   3.98087668E-002   9.45247859E-001
   1.25000000E+002   9.50619369E-001   3.98087723E-002   9.50619386E-001
   1.30000000E+002   9.55354229E-001   3.98087767E-002   9.55354243E-001
   1.35000000E+002   9.59642133E-001   3.98087802E-002   9.59642145E-001
   1.40000000E+002   9.63520662E-001   3.98087830E-002   9.63520673E-001
   1.45000000E+002   9.66987834E-001   3.98087852E-002   9.66987843E-001
   1.50000000E+002   9.70161836E-001   3.98087870E-002   9.70161843E-001
   1.55000000E+002   9.73014715E-001   3.98087885E-002   9.73014721E-001
   1.60000000E+002   9.75591791E-001   3.98087898E-002   9.75591796E-001
   1.65000000E+002   9.77902577E-001   3.98087908E-002   9.77902582E-001
   1.70000000E+002   9.80011606E-001   3.98087916E-002   9.80011610E-001
   1.75000000E+002   9.81960260E-001   3.98087923E-002   9.81960264E-001
   1.80000000E+002   9.83679288E-001   3.98087929E-002   9.83679291E-001
   1.85000000E+002   9.85272357E-001   3.98087935E-002   9.85272360E-001
   1.90000000E+002   9.86723079E-001   3.98087939E-002   9.86723082E-001
   1.95000000E+002   9.88029683E-001   3.98087943E-002   9.88029685E-001
   2.00000000E+002   9.89215311E-001   3.98087946E-002   9.89215313E-001
   2.05000000E+002   9.90310196E-001   3.98087948E-002   9.90310198E-001
   2.10000000E+002   9.91272627E-001   3.98087951E-002   9.91272628E-001
   2.15000000E+002   9.92192158E-001   3.98087953E-002   9.92192159E-001
   2.20000000E+002   9.93031842E-001   3.98087955E-002   9.93031843E-001
   2.25000000E+002   9.93750668E-001   3.98087956E-002   9.93750669E-001
   2.30000000E+002   9.94477009E-001   3.98087957E-002   9.94477010E-001
   2.35000000E+002   9.95090216E-001   3.98087959E-002   9.95090217E-001
   2.40000000E+002   9.95664605E-001   3.98087960E-002   9.95664606E-001
   2.45000000E+002   9.96182359E-001   3.98087961E-002   9.96182360E-001
