# ./jetvheto -in n3lo-fixed-order/H125-LHC13-R04-mb-0-mt-1725-xmur050-xmuf100-log.fxd -xQ 0.5 -out benchmarks-n3lo-smallR/H125-LHC13-R04-mb-0-mt-1725-xmur050-xmuf100-xQ050-N3LO+NNLLa.R0-1.0.res -scheme a -order 2 -ptmax 500.01 -small-r -fixed_order 3 -loop-mass t -R0 1.0
# process = H    
# collider = pp   
# rts =  13000.000
# M   =    125.000
# muR =     62.500
# muF =    125.000
# Q   =     62.500
# p   =      5.000
# include_c1_squared =   F
# loop_mass  = t   
# alphas(MZ) =    0.11800
# alphas(M) =    0.11264
# alphas(muR) =    0.12516
# Rjet =      0.400
# order = NNLL
# pdf name and set = PDF4LHC15_nnlo_mc.LHgrid,    0
# matching scheme = a
# total cross sections [nb] at LO, NLOdiff, NNLOdiff, N3LOdiff =     0.016868    0.020591    0.008553    0.000949
#----------------------------------------------------------------------
# the lines that follow give the jet-veto efficiencies as a function of pt
#         pt            matched eff      resummed eff     fixed-order eff
   2.00000000E+001   4.70595226E-001   5.14145837E-001   4.55384304E-001
   2.50000000E+001   5.54061262E-001   5.90464229E-001   5.40568007E-001
   3.00000000E+001   6.25940509E-001   6.43775491E-001   6.15061825E-001
   3.50000000E+001   6.81142877E-001   6.80542929E-001   6.71924624E-001
   4.00000000E+001   7.25516638E-001   7.05379715E-001   7.17776886E-001
   4.50000000E+001   7.61111474E-001   7.21674035E-001   7.54726893E-001
   5.00000000E+001   7.91403631E-001   7.31983247E-001   7.86256196E-001
   5.50000000E+001   8.17436305E-001   7.38250310E-001   8.13360155E-001
   6.00000000E+001   8.39175272E-001   7.41916516E-001   8.35982829E-001
   6.50000000E+001   8.59017685E-001   7.43993326E-001   8.56539019E-001
   7.00000000E+001   8.75553494E-001   7.45142679E-001   8.73636697E-001
   7.50000000E+001   8.88962539E-001   7.45770022E-001   8.87481736E-001
   8.00000000E+001   9.00803935E-001   7.46110544E-001   8.99656735E-001
   8.50000000E+001   9.11747865E-001   7.46295371E-001   9.10854774E-001
   9.00000000E+001   9.20877796E-001   7.46396020E-001   9.20178063E-001
   9.50000000E+001   9.29454924E-001   7.46451042E-001   9.28902629E-001
   1.00000000E+002   9.36377191E-001   7.46481182E-001   9.35938367E-001
   1.05000000E+002   9.42620653E-001   7.46497647E-001   9.42269256E-001
   1.10000000E+002   9.48299042E-001   7.46506543E-001   9.48015510E-001
   1.15000000E+002   9.53382765E-001   7.46511226E-001   9.53152280E-001
   1.20000000E+002   9.57734114E-001   7.46513560E-001   9.57545500E-001
   1.25000000E+002   9.61402808E-001   7.46514591E-001   9.61247428E-001
   1.30000000E+002   9.65332626E-001   7.46514908E-001   9.65203712E-001
   1.35000000E+002   9.68704082E-001   7.46514845E-001   9.68596472E-001
   1.40000000E+002   9.71433502E-001   7.46514591E-001   9.71343224E-001
   1.45000000E+002   9.74102567E-001   7.46514253E-001   9.74026360E-001
   1.50000000E+002   9.76291525E-001   7.46513890E-001   9.76226901E-001
   1.55000000E+002   9.78885759E-001   7.46513534E-001   9.78830644E-001
   1.60000000E+002   9.80322951E-001   7.46513199E-001   9.80275773E-001
   1.65000000E+002   9.82077927E-001   7.46512894E-001   9.82037344E-001
   1.70000000E+002   9.83560624E-001   7.46512621E-001   9.83525568E-001
   1.75000000E+002   9.85078971E-001   7.46512378E-001   9.85048566E-001
   1.80000000E+002   9.86463261E-001   7.46512164E-001   9.86436787E-001
   1.85000000E+002   9.87700235E-001   7.46511976E-001   9.87677104E-001
   1.90000000E+002   9.88386336E-001   7.46511811E-001   9.88366066E-001
   1.95000000E+002   9.89532306E-001   7.46511666E-001   9.89514472E-001
   2.00000000E+002   9.90466288E-001   7.46511540E-001   9.90450552E-001
   2.05000000E+002   9.91223751E-001   7.46511429E-001   9.91209825E-001
   2.10000000E+002   9.91896729E-001   7.46511331E-001   9.91884371E-001
   2.15000000E+002   9.92748215E-001   7.46511246E-001   9.92737216E-001
   2.20000000E+002   9.93261303E-001   7.46511171E-001   9.93251490E-001
   2.25000000E+002   9.93865099E-001   7.46511105E-001   9.93856322E-001
   2.30000000E+002   9.94430633E-001   7.46511046E-001   9.94422764E-001
   2.35000000E+002   9.94948396E-001   7.46510995E-001   9.94941324E-001
   2.40000000E+002   9.95222275E-001   7.46510949E-001   9.95215907E-001
   2.45000000E+002   9.95717137E-001   7.46510908E-001   9.95711389E-001
