# ./jetvheto -in n3lo-fixed-order/H125-LHC13-R04-mb-475-mt-1725-xmur100-xmuf200-log.fxd -xQ 0.5 -out benchmarks-n3lo-smallR/H125-LHC13-R04-mb-475-mt-1725-xmur100-xmuf200-xQ050-N3LO+NNLLa.R0-1.5.res -scheme a -order 2 -ptmax 500.01 -fixed_order 3 -small-r -loop-mass t+b -R0 1.5
# process = H    
# collider = pp   
# rts =  13000.000
# M   =    125.000
# muR =    125.000
# muF =    250.000
# Q   =     62.500
# p   =      5.000
# include_c1_squared =   F
# loop_mass  = t+b 
# alphas(MZ) =    0.11800
# alphas(M) =    0.11264
# alphas(muR) =    0.11264
# Rjet =      0.400
# order = NNLL
# pdf name and set = PDF4LHC15_nnlo_mc.LHgrid,    0
# matching scheme = a
# total cross sections [nb] at LO, NLOdiff, NNLOdiff, N3LOdiff =     0.012791    0.017144    0.009991    0.003297
#----------------------------------------------------------------------
# the lines that follow give the jet-veto efficiencies as a function of pt
#         pt            matched eff      resummed eff     fixed-order eff
   2.00000000E+001   4.53355011E-001   5.21413861E-001   4.44294678E-001
   2.50000000E+001   5.41884866E-001   5.98417471E-001   5.34693761E-001
   3.00000000E+001   6.10592697E-001   6.52303880E-001   6.03754500E-001
   3.50000000E+001   6.67216171E-001   6.89534832E-001   6.60767062E-001
   4.00000000E+001   7.13295249E-001   7.14736426E-001   7.07312178E-001
   4.50000000E+001   7.49941184E-001   7.31305631E-001   7.44538846E-001
   5.00000000E+001   7.82604746E-001   7.41813222E-001   7.77954575E-001
   5.50000000E+001   8.08603977E-001   7.48220448E-001   8.04708800E-001
   6.00000000E+001   8.30783065E-001   7.51984121E-001   8.27611409E-001
   6.50000000E+001   8.49526170E-001   7.54127531E-001   8.46993784E-001
   7.00000000E+001   8.66888870E-001   7.55322163E-001   8.64890386E-001
   7.50000000E+001   8.80990153E-001   7.55980373E-001   8.79424059E-001
   8.00000000E+001   8.93264477E-001   7.56342086E-001   8.92038991E-001
   8.50000000E+001   9.04327747E-001   7.56541701E-001   9.03366999E-001
   9.00000000E+001   9.13668135E-001   7.56652830E-001   9.12911817E-001
   9.50000000E+001   9.22656650E-001   7.56715371E-001   9.22057521E-001
   1.00000000E+002   9.30114372E-001   7.56750983E-001   9.29637057E-001
   1.05000000E+002   9.36631626E-001   7.56771506E-001   9.36248679E-001
   1.10000000E+002   9.42220149E-001   7.56783452E-001   9.41910806E-001
   1.15000000E+002   9.47667640E-001   7.56790458E-001   9.47415885E-001
   1.20000000E+002   9.52634742E-001   7.56794581E-001   9.52428414E-001
   1.25000000E+002   9.56631215E-001   7.56797005E-001   9.56461113E-001
   1.30000000E+002   9.60537603E-001   7.56798418E-001   9.60396422E-001
   1.35000000E+002   9.63798176E-001   7.56799224E-001   9.63680309E-001
   1.40000000E+002   9.67220621E-001   7.56799667E-001   9.67121607E-001
   1.45000000E+002   9.69795836E-001   7.56799890E-001   9.69712259E-001
   1.50000000E+002   9.72415773E-001   7.56799984E-001   9.72344836E-001
   1.55000000E+002   9.74730725E-001   7.56800001E-001   9.74670228E-001
   1.60000000E+002   9.76713560E-001   7.56799975E-001   9.76661728E-001
   1.65000000E+002   9.78399729E-001   7.56799925E-001   9.78355133E-001
   1.70000000E+002   9.80315683E-001   7.56799864E-001   9.80277133E-001
   1.75000000E+002   9.81809967E-001   7.56799800E-001   9.81776524E-001
   1.80000000E+002   9.83536298E-001   7.56799736E-001   9.83507162E-001
   1.85000000E+002   9.84647732E-001   7.56799675E-001   9.84622271E-001
   1.90000000E+002   9.85844008E-001   7.56799618E-001   9.85821678E-001
   1.95000000E+002   9.86891338E-001   7.56799566E-001   9.86871691E-001
   2.00000000E+002   9.88127533E-001   7.56799518E-001   9.88110187E-001
   2.05000000E+002   9.88879412E-001   7.56799476E-001   9.88864059E-001
   2.10000000E+002   9.89608661E-001   7.56799437E-001   9.89595033E-001
   2.15000000E+002   9.90452487E-001   7.56799403E-001   9.90440354E-001
   2.20000000E+002   9.91236363E-001   7.56799372E-001   9.91225534E-001
   2.25000000E+002   9.91802609E-001   7.56799345E-001   9.91792921E-001
   2.30000000E+002   9.92353607E-001   7.56799320E-001   9.92344919E-001
   2.35000000E+002   9.92954192E-001   7.56799298E-001   9.92946382E-001
   2.40000000E+002   9.93472519E-001   7.56799279E-001   9.93465484E-001
   2.45000000E+002   9.93975896E-001   7.56799261E-001   9.93969545E-001
