# ./jetvheto -in n3lo-fixed-order/H125-LHC13-R04-mb-0-mt-1725-xmur100-xmuf100-log.fxd -xQ 0.125 -out benchmarks-n3lo-smallR/H125-LHC13-R04-mb-0-mt-1725-xmur100-xmuf100-xQ0125-N3LO+NNLLa.R0-1.5.res -scheme a -order 2 -ptmax 500.01 -small-r -fixed_order 3 -loop-mass t -R0 1.5
# process = H    
# collider = pp   
# rts =  13000.000
# M   =    125.000
# muR =    125.000
# muF =    125.000
# Q   =     15.625
# p   =      5.000
# include_c1_squared =   F
# loop_mass  = t   
# alphas(MZ) =    0.11800
# alphas(M) =    0.11264
# alphas(muR) =    0.11264
# Rjet =      0.400
# order = NNLL
# pdf name and set = PDF4LHC15_nnlo_mc.LHgrid,    0
# matching scheme = a
# total cross sections [nb] at LO, NLOdiff, NNLOdiff, N3LOdiff =     0.013801    0.017514    0.010146    0.003834
#----------------------------------------------------------------------
# the lines that follow give the jet-veto efficiencies as a function of pt
#         pt            matched eff      resummed eff     fixed-order eff
   2.00000000E+001   4.70230366E-001   5.19024463E-001   4.70549319E-001
   2.50000000E+001   5.54787779E-001   5.34763949E-001   5.55098689E-001
   3.00000000E+001   6.25404177E-001   5.39883689E-001   6.25631507E-001
   3.50000000E+001   6.80074878E-001   5.41800989E-001   6.80214785E-001
   4.00000000E+001   7.24240897E-001   5.42616583E-001   7.24327023E-001
   4.50000000E+001   7.60055446E-001   5.43001204E-001   7.60109480E-001
   5.00000000E+001   7.90374971E-001   5.43198180E-001   7.90410150E-001
   5.50000000E+001   8.16241031E-001   5.43306019E-001   8.16264683E-001
   6.00000000E+001   8.38019429E-001   5.43368387E-001   8.38035676E-001
   6.50000000E+001   8.57415245E-001   5.43406147E-001   8.57426760E-001
   7.00000000E+001   8.73736673E-001   5.43429911E-001   8.73744963E-001
   7.50000000E+001   8.87336291E-001   5.43445373E-001   8.87342330E-001
   8.00000000E+001   8.99275703E-001   5.43455727E-001   8.99280183E-001
   8.50000000E+001   9.10042669E-001   5.43462836E-001   9.10046058E-001
   9.00000000E+001   9.19214721E-001   5.43467827E-001   9.19217312E-001
   9.50000000E+001   9.27601706E-001   5.43471402E-001   9.27603719E-001
   1.00000000E+002   9.34622895E-001   5.43474007E-001   9.34624471E-001
   1.05000000E+002   9.40916414E-001   5.43475935E-001   9.40917661E-001
   1.10000000E+002   9.46568142E-001   5.43477384E-001   9.46569141E-001
   1.15000000E+002   9.51647185E-001   5.43478487E-001   9.51647991E-001
   1.20000000E+002   9.56059151E-001   5.43479336E-001   9.56059806E-001
   1.25000000E+002   9.59882777E-001   5.43479997E-001   9.59883314E-001
   1.30000000E+002   9.63711250E-001   5.43480517E-001   9.63711695E-001
   1.35000000E+002   9.67054348E-001   5.43480930E-001   9.67054718E-001
   1.40000000E+002   9.69876976E-001   5.43481260E-001   9.69877285E-001
   1.45000000E+002   9.72570845E-001   5.43481527E-001   9.72571106E-001
   1.50000000E+002   9.74852513E-001   5.43481744E-001   9.74852733E-001
   1.55000000E+002   9.77310252E-001   5.43481921E-001   9.77310440E-001
   1.60000000E+002   9.78984157E-001   5.43482068E-001   9.78984317E-001
   1.65000000E+002   9.80775490E-001   5.43482189E-001   9.80775628E-001
   1.70000000E+002   9.82342192E-001   5.43482290E-001   9.82342311E-001
   1.75000000E+002   9.83862647E-001   5.43482374E-001   9.83862750E-001
   1.80000000E+002   9.85258197E-001   5.43482446E-001   9.85258287E-001
   1.85000000E+002   9.86511636E-001   5.43482506E-001   9.86511714E-001
   1.90000000E+002   9.87391256E-001   5.43482557E-001   9.87391325E-001
   1.95000000E+002   9.88518101E-001   5.43482601E-001   9.88518162E-001
   2.00000000E+002   9.89474304E-001   5.43482639E-001   9.89474357E-001
   2.05000000E+002   9.90297092E-001   5.43482671E-001   9.90297139E-001
   2.10000000E+002   9.91033184E-001   5.43482699E-001   9.91033226E-001
   2.15000000E+002   9.91849329E-001   5.43482723E-001   9.91849366E-001
   2.20000000E+002   9.92440735E-001   5.43482744E-001   9.92440768E-001
   2.25000000E+002   9.93063646E-001   5.43482763E-001   9.93063675E-001
   2.30000000E+002   9.93644255E-001   5.43482779E-001   9.93644282E-001
   2.35000000E+002   9.94181484E-001   5.43482793E-001   9.94181508E-001
   2.40000000E+002   9.94546041E-001   5.43482805E-001   9.94546063E-001
   2.45000000E+002   9.95034506E-001   5.43482816E-001   9.95034525E-001
