# ./jetvheto -in n3lo-fixed-order/H125-LHC13-R04-mb-0-mt-1725-xmur100-xmuf100-log.fxd -xQ 0.25 -out benchmarks-n3lo-smallR/H125-LHC13-R04-mb-0-mt-1725-xmur100-xmuf100-xQ025-NNLO+NNLLb.R0-1.0.res -scheme b -order 2 -ptmax 500.01 -small-r -fixed_order 2 -loop-mass t -R0 1.0
# process = H    
# collider = pp   
# rts =  13000.000
# M   =    125.000
# muR =    125.000
# muF =    125.000
# Q   =     31.250
# p   =      5.000
# include_c1_squared =   F
# loop_mass  = t   
# alphas(MZ) =    0.11800
# alphas(M) =    0.11264
# alphas(muR) =    0.11264
# Rjet =      0.400
# order = NNLL
# pdf name and set = PDF4LHC15_nnlo_mc.LHgrid,    0
# matching scheme = b
# total cross sections [nb] at LO, NLOdiff, NNLOdiff, N3LOdiff =     0.013801    0.017514    0.010146    0.003834
#----------------------------------------------------------------------
# the lines that follow give the jet-veto efficiencies as a function of pt
#         pt            matched eff      resummed eff     fixed-order eff
   2.00000000E+001   4.05122254E-001   5.43174636E-001   3.54033455E-001
   2.50000000E+001   4.87498875E-001   6.16150435E-001   4.61286580E-001
   3.00000000E+001   5.56564381E-001   6.59066137E-001   5.43462220E-001
   3.50000000E+001   6.15040721E-001   6.82417873E-001   6.08508831E-001
   4.00000000E+001   6.64533762E-001   6.94683188E-001   6.61203589E-001
   4.50000000E+001   7.06169662E-001   7.01164822E-001   7.04404447E-001
   5.00000000E+001   7.41472406E-001   7.04695311E-001   7.40494892E-001
   5.50000000E+001   7.71455200E-001   7.06695624E-001   7.70889733E-001
   6.00000000E+001   7.97214661E-001   7.07875640E-001   7.96874542E-001
   6.50000000E+001   8.19418887E-001   7.08598609E-001   8.19206785E-001
   7.00000000E+001   8.38545908E-001   7.09056995E-001   8.38409214E-001
   7.50000000E+001   8.55320982E-001   7.09356649E-001   8.55230292E-001
   8.00000000E+001   8.70024161E-001   7.09557932E-001   8.69962422E-001
   8.50000000E+001   8.82866725E-001   7.09696445E-001   8.82823656E-001
   9.00000000E+001   8.94239874E-001   7.09793836E-001   8.94209219E-001
   9.50000000E+001   9.04252257E-001   7.09863649E-001   9.04230001E-001
   1.00000000E+002   9.13184365E-001   7.09914568E-001   9.13167919E-001
   1.05000000E+002   9.21146897E-001   7.09952292E-001   9.21134551E-001
   1.10000000E+002   9.28180866E-001   7.09980642E-001   9.28171457E-001
   1.15000000E+002   9.34560900E-001   7.10002223E-001   9.34553636E-001
   1.20000000E+002   9.40249896E-001   7.10018847E-001   9.40244216E-001
   1.25000000E+002   9.45393960E-001   7.10031793E-001   9.45389469E-001
   1.30000000E+002   9.50046135E-001   7.10041975E-001   9.50042546E-001
   1.35000000E+002   9.54231314E-001   7.10050059E-001   9.54228420E-001
   1.40000000E+002   9.58015524E-001   7.10056530E-001   9.58013167E-001
   1.45000000E+002   9.61494554E-001   7.10061753E-001   9.61492620E-001
   1.50000000E+002   9.64597178E-001   7.10066000E-001   9.64595577E-001
   1.55000000E+002   9.67466267E-001   7.10069476E-001   9.67464933E-001
   1.60000000E+002   9.70086035E-001   7.10072341E-001   9.70084916E-001
   1.65000000E+002   9.72456592E-001   7.10074715E-001   9.72455647E-001
   1.70000000E+002   9.74635163E-001   7.10076694E-001   9.74634361E-001
   1.75000000E+002   9.76593029E-001   7.10078354E-001   9.76592344E-001
   1.80000000E+002   9.78409168E-001   7.10079751E-001   9.78408580E-001
   1.85000000E+002   9.80056363E-001   7.10080934E-001   9.80055856E-001
   1.90000000E+002   9.81582263E-001   7.10081940E-001   9.81581823E-001
   1.95000000E+002   9.82993187E-001   7.10082799E-001   9.82992805E-001
   2.00000000E+002   9.84271320E-001   7.10083535E-001   9.84270986E-001
   2.05000000E+002   9.85464919E-001   7.10084169E-001   9.85464627E-001
   2.10000000E+002   9.86543592E-001   7.10084717E-001   9.86543334E-001
   2.15000000E+002   9.87527628E-001   7.10085191E-001   9.87527400E-001
   2.20000000E+002   9.88451105E-001   7.10085604E-001   9.88450903E-001
   2.25000000E+002   9.89295788E-001   7.10085964E-001   9.89295609E-001
   2.30000000E+002   9.90077984E-001   7.10086279E-001   9.90077825E-001
   2.35000000E+002   9.90811794E-001   7.10086556E-001   9.90811652E-001
   2.40000000E+002   9.91470019E-001   7.10086799E-001   9.91469891E-001
   2.45000000E+002   9.92089334E-001   7.10087014E-001   9.92089219E-001
