# ./jetvheto -in n3lo-fixed-order/H125-LHC13-R04-mb-475-mt-1725-xmur200-xmuf100-log.fxd -xQ 0.0625 -out benchmarks-n3lo-smallR/H125-LHC13-R04-mb-475-mt-1725-xmur200-xmuf100-xQ0625-N3LO+NNLLb.R0-2.0.res -scheme b -order 2 -ptmax 500.01 -fixed_order 3 -small-r -loop-mass t+b -R0 2.0
# process = H    
# collider = pp   
# rts =  13000.000
# M   =    125.000
# muR =    250.000
# muF =    125.000
# Q   =      7.812
# p   =      5.000
# include_c1_squared =   F
# loop_mass  = t+b 
# alphas(MZ) =    0.11800
# alphas(M) =    0.11264
# alphas(muR) =    0.10244
# Rjet =      0.400
# order = NNLL
# pdf name and set = PDF4LHC15_nnlo_mc.LHgrid,    0
# matching scheme = b
# total cross sections [nb] at LO, NLOdiff, NNLOdiff, N3LOdiff =     0.010243    0.014468    0.010526    0.005600
#----------------------------------------------------------------------
# the lines that follow give the jet-veto efficiencies as a function of pt
#         pt            matched eff      resummed eff     fixed-order eff
   2.00000000E+001   3.90077015E-001   3.57388900E-001   3.89818525E-001
   2.50000000E+001   4.86157072E-001   3.57979680E-001   4.86093830E-001
   3.00000000E+001   5.64958226E-001   3.58152667E-001   5.64941031E-001
   3.50000000E+001   6.26771426E-001   3.58215207E-001   6.26766390E-001
   4.00000000E+001   6.76838721E-001   3.58241450E-001   6.76837357E-001
   4.50000000E+001   7.17902396E-001   3.58253752E-001   7.17902185E-001
   5.00000000E+001   7.52652331E-001   3.58260034E-001   7.52652485E-001
   5.50000000E+001   7.82254238E-001   3.58263468E-001   7.82254482E-001
   6.00000000E+001   8.07403092E-001   3.58265452E-001   8.07403331E-001
   6.50000000E+001   8.29625247E-001   3.58266653E-001   8.29625457E-001
   7.00000000E+001   8.48548137E-001   3.58267408E-001   8.48548309E-001
   7.50000000E+001   8.64477403E-001   3.58267900E-001   8.64477541E-001
   8.00000000E+001   8.78530103E-001   3.58268229E-001   8.78530213E-001
   8.50000000E+001   8.91076479E-001   3.58268455E-001   8.91076567E-001
   9.00000000E+001   9.01971045E-001   3.58268613E-001   9.01971116E-001
   9.50000000E+001   9.11808641E-001   3.58268727E-001   9.11808698E-001
   1.00000000E+002   9.20196239E-001   3.58268810E-001   9.20196285E-001
   1.05000000E+002   9.27739812E-001   3.58268871E-001   9.27739849E-001
   1.10000000E+002   9.34468965E-001   3.58268917E-001   9.34468996E-001
   1.15000000E+002   9.40534012E-001   3.58268952E-001   9.40534037E-001
   1.20000000E+002   9.45811344E-001   3.58268979E-001   9.45811365E-001
   1.25000000E+002   9.50506621E-001   3.58269000E-001   9.50506638E-001
   1.30000000E+002   9.55022361E-001   3.58269017E-001   9.55022375E-001
   1.35000000E+002   9.59040366E-001   3.58269030E-001   9.59040379E-001
   1.40000000E+002   9.62486417E-001   3.58269040E-001   9.62486427E-001
   1.45000000E+002   9.65749821E-001   3.58269049E-001   9.65749830E-001
   1.50000000E+002   9.68566106E-001   3.58269056E-001   9.68566114E-001
   1.55000000E+002   9.71448482E-001   3.58269061E-001   9.71448489E-001
   1.60000000E+002   9.73601408E-001   3.58269066E-001   9.73601413E-001
   1.65000000E+002   9.75791872E-001   3.58269070E-001   9.75791876E-001
   1.70000000E+002   9.77736995E-001   3.58269073E-001   9.77737000E-001
   1.75000000E+002   9.79584432E-001   3.58269076E-001   9.79584436E-001
   1.80000000E+002   9.81273394E-001   3.58269078E-001   9.81273397E-001
   1.85000000E+002   9.82806193E-001   3.58269080E-001   9.82806195E-001
   1.90000000E+002   9.83992075E-001   3.58269081E-001   9.83992078E-001
   1.95000000E+002   9.85350251E-001   3.58269083E-001   9.85350253E-001
   2.00000000E+002   9.86528623E-001   3.58269084E-001   9.86528625E-001
   2.05000000E+002   9.87567286E-001   3.58269085E-001   9.87567287E-001
   2.10000000E+002   9.88509509E-001   3.58269086E-001   9.88509511E-001
   2.15000000E+002   9.89474654E-001   3.58269087E-001   9.89474655E-001
   2.20000000E+002   9.90244682E-001   3.58269087E-001   9.90244684E-001
   2.25000000E+002   9.91014746E-001   3.58269088E-001   9.91014747E-001
   2.30000000E+002   9.91727979E-001   3.58269088E-001   9.91727980E-001
   2.35000000E+002   9.92388791E-001   3.58269089E-001   9.92388792E-001
   2.40000000E+002   9.92889118E-001   3.58269089E-001   9.92889118E-001
   2.45000000E+002   9.93480188E-001   3.58269090E-001   9.93480189E-001
