# ./jetvheto -in n3lo-fixed-order/H125-LHC13-R04-mb-475-mt-1725-xmur100-xmuf050-log.fxd -xQ 0.5 -out benchmarks-n3lo-smallR/H125-LHC13-R04-mb-475-mt-1725-xmur100-xmuf050-xQ050-N3LO+NNLLa.R0-2.0.res -scheme a -order 2 -ptmax 500.01 -fixed_order 3 -small-r -loop-mass t+b -R0 2.0
# process = H    
# collider = pp   
# rts =  13000.000
# M   =    125.000
# muR =    125.000
# muF =     62.500
# Q   =     62.500
# p   =      5.000
# include_c1_squared =   F
# loop_mass  = t+b 
# alphas(MZ) =    0.11800
# alphas(M) =    0.11264
# alphas(muR) =    0.11264
# Rjet =      0.400
# order = NNLL
# pdf name and set = PDF4LHC15_nnlo_mc.LHgrid,    0
# matching scheme = a
# total cross sections [nb] at LO, NLOdiff, NNLOdiff, N3LOdiff =     0.011575    0.016866    0.010424    0.004163
#----------------------------------------------------------------------
# the lines that follow give the jet-veto efficiencies as a function of pt
#         pt            matched eff      resummed eff     fixed-order eff
   2.00000000E+001   4.49159255E-001   4.94956079E-001   4.53573922E-001
   2.50000000E+001   5.36124854E-001   5.74080150E-001   5.38019533E-001
   3.00000000E+001   6.08024239E-001   6.30667857E-001   6.08084402E-001
   3.50000000E+001   6.65624940E-001   6.70670529E-001   6.64092911E-001
   4.00000000E+001   7.11076174E-001   6.98470676E-001   7.08459732E-001
   4.50000000E+001   7.49825953E-001   7.17331090E-001   7.46824661E-001
   5.00000000E+001   7.81206820E-001   7.29767024E-001   7.78201838E-001
   5.50000000E+001   8.07985675E-001   7.37736406E-001   8.05254341E-001
   6.00000000E+001   8.30235577E-001   7.42726003E-001   8.27885254E-001
   6.50000000E+001   8.50183657E-001   7.45805443E-001   8.48244754E-001
   7.00000000E+001   8.66362551E-001   7.47700683E-001   8.64794164E-001
   7.50000000E+001   8.80657925E-001   7.48876997E-001   8.79409129E-001
   8.00000000E+001   8.93479096E-001   7.49619833E-001   8.92491595E-001
   8.50000000E+001   9.04882590E-001   7.50099716E-001   9.04102870E-001
   9.00000000E+001   9.14909623E-001   7.50417812E-001   9.14292757E-001
   9.50000000E+001   9.23285930E-001   7.50634240E-001   9.22795598E-001
   1.00000000E+002   9.31071815E-001   7.50785206E-001   9.30680042E-001
   1.05000000E+002   9.37611596E-001   7.50892958E-001   9.37296509E-001
   1.10000000E+002   9.43523487E-001   7.50971481E-001   9.43268451E-001
   1.15000000E+002   9.49030031E-001   7.51029775E-001   9.48822273E-001
   1.20000000E+002   9.53965816E-001   7.51073772E-001   9.53795459E-001
   1.25000000E+002   9.58231777E-001   7.51107471E-001   9.58091146E-001
   1.30000000E+002   9.61980921E-001   7.51133622E-001   9.61864125E-001
   1.35000000E+002   9.65568629E-001   7.51154155E-001   9.65471069E-001
   1.40000000E+002   9.68838402E-001   7.51170448E-001   9.68756448E-001
   1.45000000E+002   9.71712249E-001   7.51183502E-001   9.71643032E-001
   1.50000000E+002   9.74116452E-001   7.51194050E-001   9.74057675E-001
   1.55000000E+002   9.76609980E-001   7.51202643E-001   9.76559846E-001
   1.60000000E+002   9.78853749E-001   7.51209694E-001   9.78810789E-001
   1.65000000E+002   9.80494644E-001   7.51215518E-001   9.80457656E-001
   1.70000000E+002   9.82294437E-001   7.51220360E-001   9.82262469E-001
   1.75000000E+002   9.83978082E-001   7.51224408E-001   9.83950342E-001
   1.80000000E+002   9.85352810E-001   7.51227812E-001   9.85328648E-001
   1.85000000E+002   9.86626020E-001   7.51230688E-001   9.86604898E-001
   1.90000000E+002   9.87862211E-001   7.51233129E-001   9.87843685E-001
   1.95000000E+002   9.88997218E-001   7.51235211E-001   9.88980917E-001
   2.00000000E+002   9.90012197E-001   7.51236994E-001   9.89997809E-001
   2.05000000E+002   9.90874885E-001   7.51238527E-001   9.90862147E-001
   2.10000000E+002   9.91696115E-001   7.51239851E-001   9.91684807E-001
   2.15000000E+002   9.92397860E-001   7.51240997E-001   9.92387793E-001
   2.20000000E+002   9.93226118E-001   7.51241994E-001   9.93217135E-001
   2.25000000E+002   9.93768525E-001   7.51242862E-001   9.93760488E-001
   2.30000000E+002   9.94361156E-001   7.51243622E-001   9.94353948E-001
   2.35000000E+002   9.94837921E-001   7.51244289E-001   9.94831441E-001
   2.40000000E+002   9.95318548E-001   7.51244876E-001   9.95312711E-001
   2.45000000E+002   9.95817413E-001   7.51245393E-001   9.95812145E-001
