# ./jetvheto -in n3lo-fixed-order/H125-LHC13-R04-heft-xmur050-xmuf025-log.fxd -xQ 0.50 -out benchmarks-n3lo-smallR/H125-LHC13-R04-heft-xmur050-xmuf025-xQ050-NNLO+NNLLb.res -scheme b -order 2 -ptmax 500.01 -fixed_order 2
# process = H    
# collider = pp   
# rts =  13000.000
# M   =    125.000
# muR =     62.500
# muF =     31.250
# Q   =     62.500
# p   =      5.000
# include_c1_squared =   F
# loop_mass  = none
# alphas(MZ) =    0.11800
# alphas(M) =    0.11264
# alphas(muR) =    0.12516
# Rjet =      0.400
# order = NNLL
# pdf name and set = PDF4LHC15_nnlo_mc.LHgrid,    0
# matching scheme = b
# total cross sections [nb] at LO, NLOdiff, NNLOdiff, N3LOdiff =     0.013759    0.019772    0.009723    0.001827
#----------------------------------------------------------------------
# the lines that follow give the jet-veto efficiencies as a function of pt
#         pt            matched eff      resummed eff     fixed-order eff
   2.00000000E+001   3.99908777E-001   4.77303155E-001   3.03347416E-001
   2.50000000E+001   4.82461031E-001   5.58994106E-001   4.12634532E-001
   3.00000000E+001   5.49726615E-001   6.17602016E-001   4.98015849E-001
   3.50000000E+001   6.05505079E-001   6.59106038E-001   5.66752953E-001
   4.00000000E+001   6.52011766E-001   6.88020620E-001   6.22807461E-001
   4.50000000E+001   6.91440257E-001   7.07705074E-001   6.69430323E-001
   5.00000000E+001   7.25074969E-001   7.20741516E-001   7.08517244E-001
   5.50000000E+001   7.54169921E-001   7.29143710E-001   7.41750126E-001
   6.00000000E+001   7.79649094E-001   7.34440721E-001   7.70346009E-001
   6.50000000E+001   8.01898751E-001   7.37737236E-001   7.94925012E-001
   7.00000000E+001   8.21555376E-001   7.39785460E-001   8.16311276E-001
   7.50000000E+001   8.38788204E-001   7.41069830E-001   8.34822462E-001
   8.00000000E+001   8.54203834E-001   7.41889630E-001   8.51183870E-001
   8.50000000E+001   8.67889065E-001   7.42424942E-001   8.65569979E-001
   9.00000000E+001   8.80055959E-001   7.42783323E-001   8.78259020E-001
   9.50000000E+001   8.90850747E-001   7.43029334E-001   8.89445333E-001
   1.00000000E+002   9.00555225E-001   7.43202270E-001   8.99445930E-001
   1.05000000E+002   9.09262382E-001   7.43326523E-001   9.08378952E-001
   1.10000000E+002   9.17106794E-001   7.43417574E-001   9.16397123E-001
   1.15000000E+002   9.24165896E-001   7.43485482E-001   9.23591133E-001
   1.20000000E+002   9.30499392E-001   7.43536932E-001   9.30030232E-001
   1.25000000E+002   9.36143542E-001   7.43576462E-001   9.35757736E-001
   1.30000000E+002   9.41324912E-001   7.43607216E-001   9.41005460E-001
   1.35000000E+002   9.46021690E-001   7.43631415E-001   9.45755459E-001
   1.40000000E+002   9.50234742E-001   7.43650650E-001   9.50011496E-001
   1.45000000E+002   9.54120874E-001   7.43666083E-001   9.53932590E-001
   1.50000000E+002   9.57605209E-001   7.43678568E-001   9.57445543E-001
   1.55000000E+002   9.60792436E-001   7.43688749E-001   9.60656343E-001
   1.60000000E+002   9.63717566E-001   7.43697110E-001   9.63601007E-001
   1.65000000E+002   9.66401778E-001   7.43704021E-001   9.66301495E-001
   1.70000000E+002   9.68838079E-001   7.43709769E-001   9.68751422E-001
   1.75000000E+002   9.71087247E-001   7.43714578E-001   9.71012063E-001
   1.80000000E+002   9.73138046E-001   7.43718622E-001   9.73072563E-001
   1.85000000E+002   9.74987251E-001   7.43722041E-001   9.74930007E-001
   1.90000000E+002   9.76722863E-001   7.43724944E-001   9.76672650E-001
   1.95000000E+002   9.78320313E-001   7.43727420E-001   9.78276121E-001
   2.00000000E+002   9.79776750E-001   7.43729541E-001   9.79737734E-001
   2.05000000E+002   9.81148641E-001   7.43731366E-001   9.81114091E-001
   2.10000000E+002   9.82424950E-001   7.43732941E-001   9.82394269E-001
   2.15000000E+002   9.83571903E-001   7.43734305E-001   9.83544582E-001
   2.20000000E+002   9.84664335E-001   7.43735491E-001   9.84639942E-001
   2.25000000E+002   9.85672445E-001   7.43736525E-001   9.85650614E-001
   2.30000000E+002   9.86585368E-001   7.43737430E-001   9.86565781E-001
   2.35000000E+002   9.87450743E-001   7.43738224E-001   9.87433130E-001
   2.40000000E+002   9.88242817E-001   7.43738923E-001   9.88226945E-001
   2.45000000E+002   9.88990422E-001   7.43739539E-001   9.88976088E-001
