# ./jetvheto -in n3lo-fixed-order/H125-LHC13-R04-mb-475-mt-1725-xmur025-xmuf050-log.fxd -xQ 0.25 -out benchmarks-n3lo-smallR/H125-LHC13-R04-mb-475-mt-1725-xmur025-xmuf050-xQ025-N3LO+NNLLa.R0-2.0.res -scheme a -order 2 -ptmax 500.01 -fixed_order 3 -small-r -loop-mass t+b -R0 2.0
# process = H    
# collider = pp   
# rts =  13000.000
# M   =    125.000
# muR =     31.250
# muF =     62.500
# Q   =     31.250
# p   =      5.000
# include_c1_squared =   F
# loop_mass  = t+b 
# alphas(MZ) =    0.11800
# alphas(M) =    0.11264
# alphas(muR) =    0.14091
# Rjet =      0.400
# order = NNLL
# pdf name and set = PDF4LHC15_nnlo_mc.LHgrid,    0
# matching scheme = a
# total cross sections [nb] at LO, NLOdiff, NNLOdiff, N3LOdiff =     0.017683    0.024805    0.005009   -0.002663
#----------------------------------------------------------------------
# the lines that follow give the jet-veto efficiencies as a function of pt
#         pt            matched eff      resummed eff     fixed-order eff
   2.00000000E+001   4.47604162E-001   4.28746304E-001   4.46607809E-001
   2.50000000E+001   5.31138153E-001   4.85680091E-001   5.29091423E-001
   3.00000000E+001   6.06282614E-001   5.19357140E-001   6.04995778E-001
   3.50000000E+001   6.66035583E-001   5.37765929E-001   6.65141973E-001
   4.00000000E+001   7.10907364E-001   5.47463366E-001   7.10209715E-001
   4.50000000E+001   7.52135667E-001   5.52596629E-001   7.51667982E-001
   5.00000000E+001   7.84191609E-001   5.55395390E-001   7.83854807E-001
   5.50000000E+001   8.12725096E-001   5.56982008E-001   8.12489362E-001
   6.00000000E+001   8.35563094E-001   5.57918287E-001   8.35391522E-001
   6.50000000E+001   8.57761928E-001   5.58492039E-001   8.57640710E-001
   7.00000000E+001   8.73563883E-001   5.58855862E-001   8.73471931E-001
   7.50000000E+001   8.88096538E-001   5.59093718E-001   8.88027309E-001
   8.00000000E+001   9.01509490E-001   5.59253499E-001   9.01457188E-001
   8.50000000E+001   9.13503020E-001   5.59363455E-001   9.13463104E-001
   9.00000000E+001   9.24037324E-001   5.59440770E-001   9.24006495E-001
   9.50000000E+001   9.31916303E-001   5.59496193E-001   9.31891873E-001
   1.00000000E+002   9.39778707E-001   5.59536616E-001   9.39759362E-001
   1.05000000E+002   9.45617043E-001   5.59566566E-001   9.45601410E-001
   1.10000000E+002   9.51069484E-001   5.59589072E-001   9.51056796E-001
   1.15000000E+002   9.56490105E-001   5.59606205E-001   9.56479795E-001
   1.20000000E+002   9.61351967E-001   5.59619403E-001   9.61343529E-001
   1.25000000E+002   9.65111557E-001   5.59629681E-001   9.65104556E-001
   1.30000000E+002   9.68315422E-001   5.59637765E-001   9.68309576E-001
   1.35000000E+002   9.71780117E-001   5.59644182E-001   9.71775236E-001
   1.40000000E+002   9.74936366E-001   5.59649321E-001   9.74932267E-001
   1.45000000E+002   9.77563111E-001   5.59653467E-001   9.77559644E-001
   1.50000000E+002   9.79295458E-001   5.59656838E-001   9.79292492E-001
   1.55000000E+002   9.81792916E-001   5.59659598E-001   9.81790391E-001
   1.60000000E+002   9.84001703E-001   5.59661872E-001   9.83999542E-001
   1.65000000E+002   9.84857340E-001   5.59663757E-001   9.84855464E-001
   1.70000000E+002   9.86530110E-001   5.59665329E-001   9.86528488E-001
   1.75000000E+002   9.88127257E-001   5.59666646E-001   9.88125850E-001
   1.80000000E+002   9.89168533E-001   5.59667756E-001   9.89167305E-001
   1.85000000E+002   9.90121989E-001   5.59668695E-001   9.90120912E-001
   1.90000000E+002   9.91214470E-001   5.59669494E-001   9.91213525E-001
   1.95000000E+002   9.92235491E-001   5.59670175E-001   9.92234660E-001
   2.00000000E+002   9.93106878E-001   5.59670760E-001   9.93106144E-001
   2.05000000E+002   9.93692846E-001   5.59671263E-001   9.93692194E-001
   2.10000000E+002   9.94364386E-001   5.59671698E-001   9.94363808E-001
   2.15000000E+002   9.94771813E-001   5.59672075E-001   9.94771297E-001
   2.20000000E+002   9.95687038E-001   5.59672402E-001   9.95686578E-001
   2.25000000E+002   9.95943214E-001   5.59672688E-001   9.95942802E-001
   2.30000000E+002   9.96379784E-001   5.59672938E-001   9.96379414E-001
   2.35000000E+002   9.96640773E-001   5.59673158E-001   9.96640440E-001
   2.40000000E+002   9.96984321E-001   5.59673351E-001   9.96984021E-001
   2.45000000E+002   9.97486461E-001   5.59673522E-001   9.97486190E-001
