# ./jetvheto -in n3lo-fixed-order/H125-LHC13-R04-mb-0-mt-1725-xmur100-xmuf100-log.fxd -xQ 1.0 -out benchmarks-n3lo-smallR/H125-LHC13-R04-mb-0-mt-1725-xmur100-xmuf100-xQ100-NNLO+NNLLb.R0-1.0.res -scheme b -order 2 -ptmax 500.01 -small-r -fixed_order 2 -loop-mass t -R0 1.0
# process = H    
# collider = pp   
# rts =  13000.000
# M   =    125.000
# muR =    125.000
# muF =    125.000
# Q   =    125.000
# p   =      5.000
# include_c1_squared =   F
# loop_mass  = t   
# alphas(MZ) =    0.11800
# alphas(M) =    0.11264
# alphas(muR) =    0.11264
# Rjet =      0.400
# order = NNLL
# pdf name and set = PDF4LHC15_nnlo_mc.LHgrid,    0
# matching scheme = b
# total cross sections [nb] at LO, NLOdiff, NNLOdiff, N3LOdiff =     0.013801    0.017514    0.010146    0.003834
#----------------------------------------------------------------------
# the lines that follow give the jet-veto efficiencies as a function of pt
#         pt            matched eff      resummed eff     fixed-order eff
   2.00000000E+001   4.59874975E-001   5.96948423E-001   3.54033455E-001
   2.50000000E+001   5.44942315E-001   6.86266510E-001   4.61286580E-001
   3.00000000E+001   6.13038330E-001   7.48980178E-001   5.43462220E-001
   3.50000000E+001   6.68463678E-001   7.92683488E-001   6.08508831E-001
   4.00000000E+001   7.14109961E-001   8.22673880E-001   6.61203589E-001
   4.50000000E+001   7.51792245E-001   8.42633434E-001   7.04404447E-001
   5.00000000E+001   7.83344625E-001   8.55180436E-001   7.40494892E-001
   5.50000000E+001   8.09840541E-001   8.62217465E-001   7.70889733E-001
   6.00000000E+001   8.32386280E-001   8.65140536E-001   7.96874542E-001
   6.50000000E+001   8.51600918E-001   8.64995668E-001   8.19206785E-001
   7.00000000E+001   8.67918160E-001   8.62588914E-001   8.38409214E-001
   7.50000000E+001   8.82061730E-001   8.58550016E-001   8.55230292E-001
   8.00000000E+001   8.94288866E-001   8.53381000E-001   8.69962422E-001
   8.50000000E+001   9.04792081E-001   8.47485728E-001   8.82823656E-001
   9.00000000E+001   9.13978443E-001   8.41191050E-001   8.94209219E-001
   9.50000000E+001   9.21943204E-001   8.34757678E-001   9.04230001E-001
   1.00000000E+002   9.28975719E-001   8.28392037E-001   9.13167919E-001
   1.05000000E+002   9.35186856E-001   8.22252040E-001   9.21134551E-001
   1.10000000E+002   9.40613478E-001   8.16452067E-001   9.28171457E-001
   1.15000000E+002   9.45537290E-001   8.11069186E-001   9.34553636E-001
   1.20000000E+002   9.49911496E-001   8.06147341E-001   9.40244216E-001
   1.25000000E+002   9.53880289E-001   8.01703446E-001   9.45389469E-001
   1.30000000E+002   9.57487477E-001   7.97733281E-001   9.50042546E-001
   1.35000000E+002   9.60749180E-001   7.94217164E-001   9.54228420E-001
   1.40000000E+002   9.63720077E-001   7.91125064E-001   9.58013167E-001
   1.45000000E+002   9.66488402E-001   7.88420917E-001   9.61492620E-001
   1.50000000E+002   9.68968889E-001   7.86066038E-001   9.64595577E-001
   1.55000000E+002   9.71296767E-001   7.84021586E-001   9.67464933E-001
   1.60000000E+002   9.73446041E-001   7.82250256E-001   9.70084916E-001
   1.65000000E+002   9.75407415E-001   7.80717401E-001   9.72455647E-001
   1.70000000E+002   9.77230796E-001   7.79391552E-001   9.74634361E-001
   1.75000000E+002   9.78879726E-001   7.78244627E-001   9.76592344E-001
   1.80000000E+002   9.80427561E-001   7.77251889E-001   9.78408580E-001
   1.85000000E+002   9.81841180E-001   7.76391762E-001   9.80055856E-001
   1.90000000E+002   9.83163745E-001   7.75645566E-001   9.81581823E-001
   1.95000000E+002   9.84397410E-001   7.74997214E-001   9.82992805E-001
   2.00000000E+002   9.85520566E-001   7.74432903E-001   9.84270986E-001
   2.05000000E+002   9.86578634E-001   7.73940825E-001   9.85464627E-001
   2.10000000E+002   9.87538416E-001   7.73510889E-001   9.86543334E-001
   2.15000000E+002   9.88417986E-001   7.73134484E-001   9.87527400E-001
   2.20000000E+002   9.89249619E-001   7.72804259E-001   9.88450903E-001
   2.25000000E+002   9.90013306E-001   7.72513939E-001   9.89295609E-001
   2.30000000E+002   9.90723960E-001   7.72258163E-001   9.90077825E-001
   2.35000000E+002   9.91394485E-001   7.72032347E-001   9.90811652E-001
   2.40000000E+002   9.91996538E-001   7.71832566E-001   9.91469891E-001
   2.45000000E+002   9.92565972E-001   7.71655452E-001   9.92089219E-001
