# ./jetvheto -in n3lo-fixed-order/H125-LHC13-R04-heft-xmur025-xmuf025-log.fxd -xQ 0.50 -out benchmarks-n3lo-smallR/H125-LHC13-R04-heft-xmur025-xmuf025-xQ050-N3LO+NNLLb.R0-2.0.res -scheme b -order 2 -ptmax 500.01 -fixed_order 3 -small-r -R0 2.0
# process = H    
# collider = pp   
# rts =  13000.000
# M   =    125.000
# muR =     31.250
# muF =     31.250
# Q   =     62.500
# p   =      5.000
# include_c1_squared =   F
# loop_mass  = none
# alphas(MZ) =    0.11800
# alphas(M) =    0.11264
# alphas(muR) =    0.14091
# Rjet =      0.400
# order = NNLL
# pdf name and set = PDF4LHC15_nnlo_mc.LHgrid,    0
# matching scheme = b
# total cross sections [nb] at LO, NLOdiff, NNLOdiff, N3LOdiff =     0.017443    0.024066    0.006043   -0.002471
#----------------------------------------------------------------------
# the lines that follow give the jet-veto efficiencies as a function of pt
#         pt            matched eff      resummed eff     fixed-order eff
   2.00000000E+001   5.06181357E-001   5.18202170E-001   4.81319412E-001
   2.50000000E+001   5.87945221E-001   5.81076965E-001   5.66305030E-001
   3.00000000E+001   6.51615465E-001   6.24687173E-001   6.33178878E-001
   3.50000000E+001   7.01944267E-001   6.54486071E-001   6.86587830E-001
   4.00000000E+001   7.43414761E-001   6.74388586E-001   7.31012867E-001
   4.50000000E+001   7.78511828E-001   6.87228629E-001   7.68707269E-001
   5.00000000E+001   8.07342120E-001   6.95146895E-001   7.99706169E-001
   5.50000000E+001   8.33242870E-001   6.99782842E-001   8.27385152E-001
   6.00000000E+001   8.54155269E-001   7.02348208E-001   8.49675684E-001
   6.50000000E+001   8.69875108E-001   7.03684519E-001   8.66452616E-001
   7.00000000E+001   8.85707184E-001   7.04334058E-001   8.83102826E-001
   7.50000000E+001   8.99182535E-001   7.04620971E-001   8.97196229E-001
   8.00000000E+001   9.09822749E-001   7.04726743E-001   9.08296050E-001
   8.50000000E+001   9.20091398E-001   7.04747326E-001   9.18911192E-001
   9.00000000E+001   9.29029719E-001   7.04731249E-001   9.28110187E-001
   9.50000000E+001   9.34710490E-001   7.04702012E-001   9.33987589E-001
   1.00000000E+002   9.42341441E-001   7.04670407E-001   9.41769179E-001
   1.05000000E+002   9.47438574E-001   7.04640982E-001   9.46981331E-001
   1.10000000E+002   9.53413327E-001   7.04615314E-001   9.53045371E-001
   1.15000000E+002   9.58316436E-001   7.04593644E-001   9.58017944E-001
   1.20000000E+002   9.61736608E-001   7.04575654E-001   9.61492655E-001
   1.25000000E+002   9.64603436E-001   7.04560844E-001   9.64402760E-001
   1.30000000E+002   9.68001046E-001   7.04548693E-001   9.67834879E-001
   1.35000000E+002   9.70593974E-001   7.04538728E-001   9.70455487E-001
   1.40000000E+002   9.73118212E-001   7.04530543E-001   9.73002161E-001
   1.45000000E+002   9.75455472E-001   7.04523802E-001   9.75357662E-001
   1.50000000E+002   9.77349128E-001   7.04518232E-001   9.77266275E-001
   1.55000000E+002   9.79121433E-001   7.04513612E-001   9.79050905E-001
   1.60000000E+002   9.81241412E-001   7.04509765E-001   9.81181098E-001
   1.65000000E+002   9.82520830E-001   7.04506547E-001   9.82469003E-001
   1.70000000E+002   9.83483242E-001   7.04503845E-001   9.83438528E-001
   1.75000000E+002   9.85067887E-001   7.04501566E-001   9.85029158E-001
   1.80000000E+002   9.85842832E-001   7.04499637E-001   9.85809153E-001
   1.85000000E+002   9.87011566E-001   7.04497997E-001   9.86982184E-001
   1.90000000E+002   9.87802404E-001   7.04496597E-001   9.87776674E-001
   1.95000000E+002   9.88799417E-001   7.04495399E-001   9.88776812E-001
   2.00000000E+002   9.89346442E-001   7.04494368E-001   9.89326522E-001
   2.05000000E+002   9.89945251E-001   7.04493479E-001   9.89927640E-001
   2.10000000E+002   9.90492411E-001   7.04492710E-001   9.90476798E-001
   2.15000000E+002   9.91282681E-001   7.04492042E-001   9.91268806E-001
   2.20000000E+002   9.91700670E-001   7.04491461E-001   9.91688302E-001
   2.25000000E+002   9.92328186E-001   7.04490952E-001   9.92317135E-001
   2.30000000E+002   9.92701405E-001   7.04490507E-001   9.92691508E-001
   2.35000000E+002   9.92905666E-001   7.04490116E-001   9.92896781E-001
   2.40000000E+002   9.93416758E-001   7.04489771E-001   9.93408765E-001
   2.45000000E+002   9.93818191E-001   7.04489467E-001   9.93810985E-001
