# ./jetvheto -in n3lo-fixed-order/H125-LHC13-R04-mb-475-mt-1725-xmur100-xmuf100-log.fxd -xQ 1.0 -out benchmarks-n3lo-smallR/H125-LHC13-R04-mb-475-mt-1725-xmur100-xmuf100-xQ100-N3LO+NNLLb.R0-1.5.res -scheme b -order 2 -ptmax 500.01 -fixed_order 3 -small-r -loop-mass t+b -R0 1.5
# process = H    
# collider = pp   
# rts =  13000.000
# M   =    125.000
# muR =    125.000
# muF =    125.000
# Q   =    125.000
# p   =      5.000
# include_c1_squared =   F
# loop_mass  = t+b 
# alphas(MZ) =    0.11800
# alphas(M) =    0.11264
# alphas(muR) =    0.11264
# Rjet =      0.400
# order = NNLL
# pdf name and set = PDF4LHC15_nnlo_mc.LHgrid,    0
# matching scheme = b
# total cross sections [nb] at LO, NLOdiff, NNLOdiff, N3LOdiff =     0.012292    0.016994    0.010146    0.003834
#----------------------------------------------------------------------
# the lines that follow give the jet-veto efficiencies as a function of pt
#         pt            matched eff      resummed eff     fixed-order eff
   2.00000000E+001   4.51312073E-001   5.87710639E-001   3.97974970E-001
   2.50000000E+001   5.36125946E-001   6.70589029E-001   4.91794485E-001
   3.00000000E+001   6.08981708E-001   7.28418222E-001   5.70830727E-001
   3.50000000E+001   6.66267808E-001   7.68453828E-001   6.32372721E-001
   4.00000000E+001   7.12737967E-001   7.95701822E-001   6.82195687E-001
   4.50000000E+001   7.50556371E-001   8.13620608E-001   7.22903550E-001
   5.00000000E+001   7.82650519E-001   8.24660944E-001   7.57489684E-001
   5.50000000E+001   8.10032475E-001   8.30599996E-001   7.87062825E-001
   6.00000000E+001   8.33002324E-001   8.32739677E-001   8.12064423E-001
   6.50000000E+001   8.53560271E-001   8.32054534E-001   8.34389891E-001
   7.00000000E+001   8.70726395E-001   8.29295318E-001   8.53266196E-001
   7.50000000E+001   8.84682648E-001   8.25048477E-001   8.68915734E-001
   8.00000000E+001   8.96928249E-001   8.19781600E-001   8.82724838E-001
   8.50000000E+001   9.07964966E-001   8.13870883E-001   8.95173737E-001
   9.00000000E+001   9.17294476E-001   8.07620776E-001   9.05851124E-001
   9.50000000E+001   9.25835278E-001   8.01273934E-001   9.15604325E-001
   1.00000000E+002   9.32826722E-001   7.95022229E-001   9.23755321E-001
   1.05000000E+002   9.39115594E-001   7.89012036E-001   9.31095317E-001
   1.10000000E+002   9.44749870E-001   7.83348813E-001   9.37676052E-001
   1.15000000E+002   9.49809009E-001   7.78102921E-001   9.43589165E-001
   1.20000000E+002   9.54140094E-001   7.73313529E-001   9.48691534E-001
   1.25000000E+002   9.57922364E-001   7.68994371E-001   9.53165332E-001
   1.30000000E+002   9.61775187E-001   7.65139324E-001   9.57610782E-001
   1.35000000E+002   9.65166134E-001   7.61727789E-001   9.61527659E-001
   1.40000000E+002   9.67981942E-001   7.58729542E-001   9.64811168E-001
   1.45000000E+002   9.70727997E-001   7.56108819E-001   9.67960469E-001
   1.50000000E+002   9.73042877E-001   7.53827557E-001   9.70629444E-001
   1.55000000E+002   9.75611246E-001   7.51847710E-001   9.73496621E-001
   1.60000000E+002   9.77283458E-001   7.50132856E-001   9.75439366E-001
   1.65000000E+002   9.79148474E-001   7.48649234E-001   9.77532916E-001
   1.70000000E+002   9.80778848E-001   7.47366234E-001   9.79362104E-001
   1.75000000E+002   9.82388662E-001   7.46256566E-001   9.81142536E-001
   1.80000000E+002   9.83863712E-001   7.45296218E-001   9.82765601E-001
   1.85000000E+002   9.85201930E-001   7.44464257E-001   9.84232456E-001
   1.90000000E+002   9.86115246E-001   7.43742573E-001   9.85259944E-001
   1.95000000E+002   9.87339335E-001   7.43115576E-001   9.86580536E-001
   2.00000000E+002   9.88375634E-001   7.42569895E-001   9.87701531E-001
   2.05000000E+002   9.89262589E-001   7.42094093E-001   9.88662839E-001
   2.10000000E+002   9.90065952E-001   7.41678403E-001   9.89531244E-001
   2.15000000E+002   9.90958158E-001   7.41314488E-001   9.90479731E-001
   2.20000000E+002   9.91601701E-001   7.40995235E-001   9.91173490E-001
   2.25000000E+002   9.92286420E-001   7.40714572E-001   9.91902037E-001
   2.30000000E+002   9.92924053E-001   7.40467312E-001   9.92578309E-001
   2.35000000E+002   9.93514070E-001   7.40249022E-001   9.93202487E-001
   2.40000000E+002   9.93909122E-001   7.40055902E-001   9.93628140E-001
   2.45000000E+002   9.94453906E-001   7.39884699E-001   9.94199651E-001
