# ./jetvheto -in n3lo-fixed-order/H125-LHC13-R04-heft-xmur050-xmuf050-log.fxd -xQ 1.00 -out benchmarks-n3lo-smallR/H125-LHC13-R04-heft-xmur050-xmuf050-xQ100-N3LO+NNLLb.R0-2.0.res -scheme b -order 2 -ptmax 500.01 -fixed_order 3 -small-r -R0 2.0
# process = H    
# collider = pp   
# rts =  13000.000
# M   =    125.000
# muR =     62.500
# muF =     62.500
# Q   =    125.000
# p   =      5.000
# include_c1_squared =   F
# loop_mass  = none
# alphas(MZ) =    0.11800
# alphas(M) =    0.11264
# alphas(muR) =    0.12516
# Rjet =      0.400
# order = NNLL
# pdf name and set = PDF4LHC15_nnlo_mc.LHgrid,    0
# matching scheme = b
# total cross sections [nb] at LO, NLOdiff, NNLOdiff, N3LOdiff =     0.015055    0.019611    0.008998    0.001413
#----------------------------------------------------------------------
# the lines that follow give the jet-veto efficiencies as a function of pt
#         pt            matched eff      resummed eff     fixed-order eff
   2.00000000E+001   5.31689060E-001   6.69471752E-001   4.32272620E-001
   2.50000000E+001   6.04493400E-001   7.37285343E-001   5.20076688E-001
   3.00000000E+001   6.67206383E-001   7.82836744E-001   5.95188306E-001
   3.50000000E+001   7.16609361E-001   8.12886748E-001   6.54648121E-001
   4.00000000E+001   7.54294182E-001   8.32013180E-001   7.00880952E-001
   4.50000000E+001   7.87747367E-001   8.43289018E-001   7.41355940E-001
   5.00000000E+001   8.14036824E-001   8.48853578E-001   7.73800605E-001
   5.50000000E+001   8.37098699E-001   8.50245468E-001   8.02051238E-001
   6.00000000E+001   8.55617337E-001   8.48585164E-001   8.25176712E-001
   6.50000000E+001   8.73198200E-001   8.44714162E-001   8.46550538E-001
   7.00000000E+001   8.86206662E-001   8.39280092E-001   8.63110860E-001
   7.50000000E+001   8.97959137E-001   8.32782879E-001   8.77894218E-001
   8.00000000E+001   9.08692280E-001   8.25618196E-001   8.91221610E-001
   8.50000000E+001   9.18249219E-001   8.18105070E-001   9.03036791E-001
   9.00000000E+001   9.26719130E-001   8.10500901E-001   9.13482770E-001
   9.50000000E+001   9.33283942E-001   8.03010462E-001   9.21853677E-001
   1.00000000E+002   9.39667402E-001   7.95794548E-001   9.29768082E-001
   1.05000000E+002   9.44628361E-001   7.88972954E-001   9.36111694E-001
   1.10000000E+002   9.49294011E-001   7.82628575E-001   9.41960757E-001
   1.15000000E+002   9.53783756E-001   7.76812118E-001   9.47456202E-001
   1.20000000E+002   9.57873042E-001   7.71545147E-001   9.52413885E-001
   1.25000000E+002   9.61199979E-001   7.66826342E-001   9.56505189E-001
   1.30000000E+002   9.64118551E-001   7.62636897E-001   9.60082213E-001
   1.35000000E+002   9.67143480E-001   7.58945448E-001   9.63658956E-001
   1.40000000E+002   9.69908081E-001   7.55712689E-001   9.66896738E-001
   1.45000000E+002   9.72275991E-001   7.52895233E-001   9.69673261E-001
   1.50000000E+002   9.74088504E-001   7.50448626E-001   9.71842925E-001
   1.55000000E+002   9.76274465E-001   7.48329526E-001   9.74323047E-001
   1.60000000E+002   9.78267541E-001   7.46497140E-001   9.76568926E-001
   1.65000000E+002   9.79416638E-001   7.44914024E-001   9.77944247E-001
   1.70000000E+002   9.81018828E-001   7.43546572E-001   9.79732679E-001
   1.75000000E+002   9.82534219E-001   7.42365047E-001   9.81407724E-001
   1.80000000E+002   9.83685082E-001   7.41343380E-001   9.82698288E-001
   1.85000000E+002   9.84745543E-001   7.40458939E-001   9.83878937E-001
   1.90000000E+002   9.85861386E-001   7.39692206E-001   9.85097366E-001
   1.95000000E+002   9.86895905E-001   7.39026423E-001   9.86220604E-001
   2.00000000E+002   9.87821370E-001   7.38447252E-001   9.87223233E-001
   2.05000000E+002   9.88567103E-001   7.37942447E-001   9.88036656E-001
   2.10000000E+002   9.89333445E-001   7.37501569E-001   9.88861494E-001
   2.15000000E+002   9.89924644E-001   7.37115718E-001   9.89504277E-001
   2.20000000E+002   9.90784535E-001   7.36777307E-001   9.90408081E-001
   2.25000000E+002   9.91239525E-001   7.36479870E-001   9.90902794E-001
   2.30000000E+002   9.91804446E-001   7.36217884E-001   9.91502219E-001
   2.35000000E+002   9.92232893E-001   7.35986633E-001   9.91961268E-001
   2.40000000E+002   9.92698821E-001   7.35782079E-001   9.92454049E-001
   2.45000000E+002   9.93245417E-001   7.35600763E-001   9.93024154E-001
