# ./jetvheto -in n3lo-fixed-order/H125-LHC13-R04-mb-0-mt-1725-xmur050-xmuf050-log.fxd -xQ 0.75 -out benchmarks-n3lo-smallR/H125-LHC13-R04-mb-0-mt-1725-xmur050-xmuf050-xQ075-NNLO+NNLLa.R0-1.5.res -scheme a -order 2 -ptmax 500.01 -small-r -fixed_order 2 -loop-mass t -R0 1.5
# process = H    
# collider = pp   
# rts =  13000.000
# M   =    125.000
# muR =     62.500
# muF =     62.500
# Q   =     93.750
# p   =      5.000
# include_c1_squared =   F
# loop_mass  = t   
# alphas(MZ) =    0.11800
# alphas(M) =    0.11264
# alphas(muR) =    0.12516
# Rjet =      0.400
# order = NNLL
# pdf name and set = PDF4LHC15_nnlo_mc.LHgrid,    0
# matching scheme = a
# total cross sections [nb] at LO, NLOdiff, NNLOdiff, N3LOdiff =     0.015885    0.020561    0.008998    0.001413
#----------------------------------------------------------------------
# the lines that follow give the jet-veto efficiencies as a function of pt
#         pt            matched eff      resummed eff     fixed-order eff
   2.00000000E+001   5.26773483E-001   5.67199814E-001   4.69057413E-001
   2.50000000E+001   6.11374842E-001   6.43332375E-001   5.55288671E-001
   3.00000000E+001   6.76770737E-001   6.96217303E-001   6.22338019E-001
   3.50000000E+001   7.28158618E-001   7.32644747E-001   6.75875821E-001
   4.00000000E+001   7.68899041E-001   7.57254439E-001   7.19396295E-001
   4.50000000E+001   8.01530434E-001   7.73288764E-001   7.55344248E-001
   5.00000000E+001   8.28186411E-001   7.83062247E-001   7.85683467E-001
   5.50000000E+001   8.49581192E-001   7.88279692E-001   8.11020538E-001
   6.00000000E+001   8.67299520E-001   7.90216646E-001   8.32757246E-001
   6.50000000E+001   8.82063156E-001   7.89858736E-001   8.51501964E-001
   7.00000000E+001   8.94456904E-001   7.87978416E-001   8.67734675E-001
   7.50000000E+001   9.04873513E-001   7.85178812E-001   8.81763053E-001
   8.00000000E+001   9.13885757E-001   7.81921766E-001   8.94087077E-001
   8.50000000E+001   9.21772947E-001   7.78544906E-001   9.04946611E-001
   9.00000000E+001   9.28726435E-001   7.75278707E-001   9.14517318E-001
   9.50000000E+001   9.34843504E-001   7.72263692E-001   9.22903074E-001
   1.00000000E+002   9.40444832E-001   7.69572322E-001   9.30440166E-001
   1.05000000E+002   9.45402974E-001   7.67227771E-001   9.37035250E-001
   1.10000000E+002   9.49933790E-001   7.65221106E-001   9.42936658E-001
   1.15000000E+002   9.54088700E-001   7.63524960E-001   9.48232561E-001
   1.20000000E+002   9.57907990E-001   7.62103383E-001   9.52998144E-001
   1.25000000E+002   9.61453083E-001   7.60918217E-001   9.57326460E-001
   1.30000000E+002   9.64626571E-001   7.59933072E-001   9.61148649E-001
   1.35000000E+002   9.67542631E-001   7.59115115E-001   9.64601780E-001
   1.40000000E+002   9.70246447E-001   7.58435776E-001   9.67750932E-001
   1.45000000E+002   9.72737956E-001   7.57870816E-001   9.70612637E-001
   1.50000000E+002   9.75049378E-001   7.57399999E-001   9.73232562E-001
   1.55000000E+002   9.77145770E-001   7.57006610E-001   9.75586996E-001
   1.60000000E+002   9.79069536E-001   7.56676932E-001   9.77727247E-001
   1.65000000E+002   9.80820900E-001   7.56399750E-001   9.79660891E-001
   1.70000000E+002   9.82445655E-001   7.56165914E-001   9.81439603E-001
   1.75000000E+002   9.83929188E-001   7.55967958E-001   9.83053670E-001
   1.80000000E+002   9.85271944E-001   7.55799791E-001   9.84507522E-001
   1.85000000E+002   9.86523870E-001   7.55656430E-001   9.85854277E-001
   1.90000000E+002   9.87673767E-001   7.55533794E-001   9.87085413E-001
   1.95000000E+002   9.88726826E-001   7.55428530E-001   9.88208314E-001
   2.00000000E+002   9.89694253E-001   7.55337878E-001   9.89235973E-001
   2.05000000E+002   9.90583931E-001   7.55259558E-001   9.90177759E-001
   2.10000000E+002   9.91382215E-001   7.55191678E-001   9.91021276E-001
   2.15000000E+002   9.92141223E-001   7.55132667E-001   9.91819641E-001
   2.20000000E+002   9.92836287E-001   7.55081216E-001   9.92549062E-001
   2.25000000E+002   9.93453892E-001   7.55036227E-001   9.93196753E-001
   2.30000000E+002   9.94063847E-001   7.54996781E-001   9.93833097E-001
   2.35000000E+002   9.94587875E-001   7.54962101E-001   9.94380362E-001
   2.40000000E+002   9.95084917E-001   7.54931534E-001   9.94897900E-001
   2.45000000E+002   9.95540096E-001   7.54904524E-001   9.95371206E-001
