# ./jetvheto -in n3lo-fixed-order/H125-LHC13-R04-mb-0-mt-1725-xmur100-xmuf050-log.fxd -xQ 0.5 -out benchmarks-n3lo-smallR/H125-LHC13-R04-mb-0-mt-1725-xmur100-xmuf050-xQ050-NNLO+NNLLb.R0-0.5.res -scheme b -order 2 -ptmax 500.01 -small-r -fixed_order 2 -loop-mass t -R0 0.5
# process = H    
# collider = pp   
# rts =  13000.000
# M   =    125.000
# muR =    125.000
# muF =     62.500
# Q   =     62.500
# p   =      5.000
# include_c1_squared =   F
# loop_mass  = t   
# alphas(MZ) =    0.11800
# alphas(M) =    0.11264
# alphas(muR) =    0.11264
# Rjet =      0.400
# order = NNLL
# pdf name and set = PDF4LHC15_nnlo_mc.LHgrid,    0
# matching scheme = b
# total cross sections [nb] at LO, NLOdiff, NNLOdiff, N3LOdiff =     0.012997    0.017347    0.010424    0.004163
#----------------------------------------------------------------------
# the lines that follow give the jet-veto efficiencies as a function of pt
#         pt            matched eff      resummed eff     fixed-order eff
   2.00000000E+001   4.13531090E-001   5.05160942E-001   3.35464478E-001
   2.50000000E+001   4.98499774E-001   5.90826688E-001   4.44581634E-001
   3.00000000E+001   5.67311966E-001   6.52373188E-001   5.28420724E-001
   3.50000000E+001   6.23831083E-001   6.96049941E-001   5.94978134E-001
   4.00000000E+001   6.70629779E-001   7.26525276E-001   6.48877858E-001
   4.50000000E+001   7.09807060E-001   7.47298512E-001   6.93298464E-001
   5.00000000E+001   7.43307139E-001   7.61076387E-001   7.30768118E-001
   5.50000000E+001   7.71512206E-001   7.69970864E-001   7.62009523E-001
   6.00000000E+001   7.96039533E-001   7.75590020E-001   7.88850765E-001
   6.50000000E+001   8.17450421E-001   7.79095207E-001   8.12015374E-001
   7.00000000E+001   8.36186722E-001   7.81278666E-001   8.32071711E-001
   7.50000000E+001   8.52582114E-001   7.82651543E-001   8.49453901E-001
   8.00000000E+001   8.67129006E-001   7.83530028E-001   8.64737072E-001
   8.50000000E+001   8.80070537E-001   7.84104871E-001   8.78228289E-001
   9.00000000E+001   8.91562260E-001   7.84490478E-001   8.90131888E-001
   9.50000000E+001   9.01720815E-001   7.84755650E-001   9.00600609E-001
   1.00000000E+002   9.10909012E-001   7.84942340E-001   9.10024002E-001
   1.05000000E+002   9.19000021E-001   7.85076647E-001   9.18294838E-001
   1.10000000E+002   9.26267677E-001   7.85175170E-001   9.25701100E-001
   1.15000000E+002   9.32828521E-001   7.85248715E-001   9.32369614E-001
   1.20000000E+002   9.38757912E-001   7.85304475E-001   9.38383362E-001
   1.25000000E+002   9.44165266E-001   7.85347341E-001   9.43857332E-001
   1.30000000E+002   9.48965436E-001   7.85380708E-001   9.48710541E-001
   1.35000000E+002   9.53305289E-001   7.85406972E-001   9.53092945E-001
   1.40000000E+002   9.57282707E-001   7.85427855E-001   9.57104719E-001
   1.45000000E+002   9.60918623E-001   7.85444614E-001   9.60768564E-001
   1.50000000E+002   9.64250704E-001   7.85458176E-001   9.64123509E-001
   1.55000000E+002   9.67256002E-001   7.85469236E-001   9.67147638E-001
   1.60000000E+002   9.69996208E-001   7.85478320E-001   9.69903441E-001
   1.65000000E+002   9.72483218E-001   7.85485831E-001   9.72403442E-001
   1.70000000E+002   9.74772356E-001   7.85492078E-001   9.74703456E-001
   1.75000000E+002   9.76849193E-001   7.85497305E-001   9.76789445E-001
   1.80000000E+002   9.78734763E-001   7.85501701E-001   9.78682751E-001
   1.85000000E+002   9.80484172E-001   7.85505417E-001   9.80438727E-001
   1.90000000E+002   9.82084513E-001   7.85508573E-001   9.82044669E-001
   1.95000000E+002   9.83552706E-001   7.85511265E-001   9.83517655E-001
   2.00000000E+002   9.84900276E-001   7.85513571E-001   9.84869345E-001
   2.05000000E+002   9.86134570E-001   7.85515555E-001   9.86107193E-001
   2.10000000E+002   9.87249007E-001   7.85517267E-001   9.87224706E-001
   2.15000000E+002   9.88300855E-001   7.85518751E-001   9.88279226E-001
   2.20000000E+002   9.89264060E-001   7.85520040E-001   9.89244758E-001
   2.25000000E+002   9.90131003E-001   7.85521165E-001   9.90113735E-001
   2.30000000E+002   9.90969554E-001   7.85522149E-001   9.90954068E-001
   2.35000000E+002   9.91701547E-001   7.85523012E-001   9.91687628E-001
   2.40000000E+002   9.92394425E-001   7.85523772E-001   9.92381887E-001
   2.45000000E+002   9.93028673E-001   7.85524442E-001   9.93017355E-001
