# ./jetvheto -in n3lo-fixed-order/H125-LHC13-R04-mb-0-mt-1725-xmur100-xmuf100-log.fxd -xQ 0.75 -out benchmarks-n3lo-smallR/H125-LHC13-R04-mb-0-mt-1725-xmur100-xmuf100-xQ075-NNLO+NNLLb.R0-1.5.res -scheme b -order 2 -ptmax 500.01 -small-r -fixed_order 2 -loop-mass t -R0 1.5
# process = H    
# collider = pp   
# rts =  13000.000
# M   =    125.000
# muR =    125.000
# muF =    125.000
# Q   =     93.750
# p   =      5.000
# include_c1_squared =   F
# loop_mass  = t   
# alphas(MZ) =    0.11800
# alphas(M) =    0.11264
# alphas(muR) =    0.11264
# Rjet =      0.400
# order = NNLL
# pdf name and set = PDF4LHC15_nnlo_mc.LHgrid,    0
# matching scheme = b
# total cross sections [nb] at LO, NLOdiff, NNLOdiff, N3LOdiff =     0.013801    0.017514    0.010146    0.003834
#----------------------------------------------------------------------
# the lines that follow give the jet-veto efficiencies as a function of pt
#         pt            matched eff      resummed eff     fixed-order eff
   2.00000000E+001   4.54837386E-001   5.62383281E-001   3.54033455E-001
   2.50000000E+001   5.38581871E-001   6.46296628E-001   4.61286580E-001
   3.00000000E+001   6.05633014E-001   7.05544895E-001   5.43462220E-001
   3.50000000E+001   6.60173558E-001   7.47059424E-001   6.08508831E-001
   4.00000000E+001   7.05038472E-001   7.75716296E-001   6.61203589E-001
   4.50000000E+001   7.42063139E-001   7.94967969E-001   7.04404447E-001
   5.00000000E+001   7.73060695E-001   8.07285470E-001   7.40494892E-001
   5.50000000E+001   7.99106889E-001   8.14497176E-001   7.70889733E-001
   6.00000000E+001   8.21300331E-001   8.17989580E-001   7.96874542E-001
   6.50000000E+001   8.40285870E-001   8.18839413E-001   8.19206785E-001
   7.00000000E+001   8.56516258E-001   8.17891634E-001   8.38409214E-001
   7.50000000E+001   8.70710268E-001   8.15806346E-001   8.55230292E-001
   8.00000000E+001   8.83128869E-001   8.13091356E-001   8.69962422E-001
   8.50000000E+001   8.93965899E-001   8.10122119E-001   8.82823656E-001
   9.00000000E+001   9.03602117E-001   8.07160595E-001   8.94209219E-001
   9.50000000E+001   9.12123091E-001   8.04373322E-001   9.04230001E-001
   1.00000000E+002   9.19788703E-001   8.01852407E-001   9.13167919E-001
   1.05000000E+002   9.26683842E-001   7.99635925E-001   9.21134551E-001
   1.10000000E+002   9.32822817E-001   7.97726057E-001   9.28171457E-001
   1.15000000E+002   9.38457656E-001   7.96103670E-001   9.34553636E-001
   1.20000000E+002   9.43526660E-001   7.94738745E-001   9.40244216E-001
   1.25000000E+002   9.48156242E-001   7.93597545E-001   9.45389469E-001
   1.30000000E+002   9.52381355E-001   7.92646812E-001   9.50042546E-001
   1.35000000E+002   9.56211691E-001   7.91856009E-001   9.54228420E-001
   1.40000000E+002   9.59700490E-001   7.91198282E-001   9.58013167E-001
   1.45000000E+002   9.62933415E-001   7.90650666E-001   9.61492620E-001
   1.50000000E+002   9.65829984E-001   7.90193879E-001   9.64595577E-001
   1.55000000E+002   9.68526395E-001   7.89811923E-001   9.67464933E-001
   1.60000000E+002   9.71000904E-001   7.89491626E-001   9.70084916E-001
   1.65000000E+002   9.73248786E-001   7.89222193E-001   9.72455647E-001
   1.70000000E+002   9.75323488E-001   7.88994797E-001   9.74634361E-001
   1.75000000E+002   9.77193019E-001   7.88802225E-001   9.76592344E-001
   1.80000000E+002   9.78933870E-001   7.88638581E-001   9.78408580E-001
   1.85000000E+002   9.80516626E-001   7.88499041E-001   9.80055856E-001
   1.90000000E+002   9.81987229E-001   7.88379648E-001   9.81581823E-001
   1.95000000E+002   9.83350545E-001   7.88277150E-001   9.82992805E-001
   2.00000000E+002   9.84587530E-001   7.88188865E-001   9.84270986E-001
   2.05000000E+002   9.85745488E-001   7.88112579E-001   9.85464627E-001
   2.10000000E+002   9.86793169E-001   7.88046455E-001   9.86543334E-001
   2.15000000E+002   9.87750185E-001   7.87988966E-001   9.87527400E-001
   2.20000000E+002   9.88650057E-001   7.87938836E-001   9.88450903E-001
   2.25000000E+002   9.89474048E-001   7.87894999E-001   9.89295609E-001
   2.30000000E+002   9.90238063E-001   7.87856561E-001   9.90077825E-001
   2.35000000E+002   9.90955860E-001   7.87822765E-001   9.90811652E-001
   2.40000000E+002   9.91599937E-001   7.87792975E-001   9.91469891E-001
   2.45000000E+002   9.92206731E-001   7.87766652E-001   9.92089219E-001
