# ./jetvheto -in n3lo-fixed-order/H125-LHC13-R04-mb-0-mt-1725-xmur025-xmuf050-log.fxd -xQ 0.5 -out benchmarks-n3lo-smallR/H125-LHC13-R04-mb-0-mt-1725-xmur025-xmuf050-xQ050-NNLO+NNLLa.res -scheme a -order 2 -ptmax 500.01 -fixed_order 2 -loop-mass t
# process = H    
# collider = pp   
# rts =  13000.000
# M   =    125.000
# muR =     31.250
# muF =     62.500
# Q   =     62.500
# p   =      5.000
# include_c1_squared =   F
# loop_mass  = t   
# alphas(MZ) =    0.11800
# alphas(M) =    0.11264
# alphas(muR) =    0.14091
# Rjet =      0.400
# order = NNLL
# pdf name and set = PDF4LHC15_nnlo_mc.LHgrid,    0
# matching scheme = a
# total cross sections [nb] at LO, NLOdiff, NNLOdiff, N3LOdiff =     0.019855    0.024744    0.005009   -0.002663
#----------------------------------------------------------------------
# the lines that follow give the jet-veto efficiencies as a function of pt
#         pt            matched eff      resummed eff     fixed-order eff
   2.00000000E+001   4.83721097E-001   4.90779128E-001   4.32957478E-001
   2.50000000E+001   5.67798278E-001   5.60721203E-001   5.23268277E-001
   3.00000000E+001   6.33350674E-001   6.08981426E-001   5.94997758E-001
   3.50000000E+001   6.85346352E-001   6.41851962E-001   6.52852727E-001
   4.00000000E+001   7.27194110E-001   6.63757448E-001   7.00189076E-001
   4.50000000E+001   7.61441953E-001   6.77885528E-001   7.39439888E-001
   5.00000000E+001   7.90203104E-001   6.86623821E-001   7.72597069E-001
   5.50000000E+001   8.14209199E-001   6.91776457E-001   8.00363223E-001
   6.00000000E+001   8.34891671E-001   6.94667187E-001   8.24125039E-001
   6.50000000E+001   8.52899637E-001   6.96209024E-001   8.44589142E-001
   7.00000000E+001   8.68710326E-001   6.96989866E-001   8.62316742E-001
   7.50000000E+001   8.82485262E-001   6.97362157E-001   8.77562874E-001
   8.00000000E+001   8.94741119E-001   6.97524465E-001   8.90937501E-001
   8.50000000E+001   9.05642393E-001   6.97583201E-001   9.02686522E-001
   9.00000000E+001   9.15333640E-001   6.97593482E-001   9.13020832E-001
   9.50000000E+001   9.23840669E-001   6.97582860E-001   9.22017282E-001
   1.00000000E+002   9.31531228E-001   6.97564663E-001   9.30082050E-001
   1.05000000E+002   9.38261761E-001   6.97545068E-001   9.37101049E-001
   1.10000000E+002   9.44310644E-001   6.97526726E-001   9.43373741E-001
   1.15000000E+002   9.49731609E-001   6.97510594E-001   9.48969590E-001
   1.20000000E+002   9.54609852E-001   6.97496847E-001   9.53985574E-001
   1.25000000E+002   9.59038291E-001   6.97485327E-001   9.58523292E-001
   1.30000000E+002   9.62928965E-001   6.97475754E-001   9.62501393E-001
   1.35000000E+002   9.66455834E-001   6.97467830E-001   9.66098675E-001
   1.40000000E+002   9.69656669E-001   6.97461275E-001   9.69356558E-001
   1.45000000E+002   9.72543264E-001   6.97455847E-001   9.72289680E-001
   1.50000000E+002   9.75189401E-001   6.97451343E-001   9.74974013E-001
   1.55000000E+002   9.77556424E-001   6.97447594E-001   9.77372588E-001
   1.60000000E+002   9.79700430E-001   6.97444464E-001   9.79542793E-001
   1.65000000E+002   9.81623924E-001   6.97441840E-001   9.81488158E-001
   1.70000000E+002   9.83394584E-001   6.97439633E-001   9.83277166E-001
   1.75000000E+002   9.85004212E-001   6.97437769E-001   9.84902266E-001
   1.80000000E+002   9.86433335E-001   6.97436188E-001   9.86344489E-001
   1.85000000E+002   9.87754970E-001   6.97434844E-001   9.87677261E-001
   1.90000000E+002   9.88962740E-001   6.97433695E-001   9.88894543E-001
   1.95000000E+002   9.90052501E-001   6.97432711E-001   9.89992458E-001
   2.00000000E+002   9.91044817E-001   6.97431864E-001   9.90991790E-001
   2.05000000E+002   9.91955924E-001   6.97431133E-001   9.91908957E-001
   2.10000000E+002   9.92758900E-001   6.97430501E-001   9.92717184E-001
   2.15000000E+002   9.93524059E-001   6.97429951E-001   9.93486906E-001
   2.20000000E+002   9.94220218E-001   6.97429472E-001   9.94187045E-001
   2.25000000E+002   9.94820980E-001   6.97429053E-001   9.94791288E-001
   2.30000000E+002   9.95431714E-001   6.97428687E-001   9.95405075E-001
   2.35000000E+002   9.95940603E-001   6.97428364E-001   9.95916649E-001
   2.40000000E+002   9.96421201E-001   6.97428080E-001   9.96399614E-001
   2.45000000E+002   9.96859979E-001   6.97427830E-001   9.96840486E-001
