# ./jetvheto -in n3lo-fixed-order/H125-LHC13-R04-heft-xmur100-xmuf100-log.fxd -xQ 0.50 -out benchmarks-n3lo-smallR/H125-LHC13-R04-heft-xmur100-xmuf100-xQ050-N3LO+NNLLa.R0-1.5.res -scheme a -order 2 -ptmax 500.01 -fixed_order 3 -small-r -R0 1.5
# process = H    
# collider = pp   
# rts =  13000.000
# M   =    125.000
# muR =    125.000
# muF =    125.000
# Q   =     62.500
# p   =      5.000
# include_c1_squared =   F
# loop_mass  = none
# alphas(MZ) =    0.11800
# alphas(M) =    0.11264
# alphas(muR) =    0.11264
# Rjet =      0.400
# order = NNLL
# pdf name and set = PDF4LHC15_nnlo_mc.LHgrid,    0
# matching scheme = a
# total cross sections [nb] at LO, NLOdiff, NNLOdiff, N3LOdiff =     0.012945    0.016716    0.010146    0.003834
#----------------------------------------------------------------------
# the lines that follow give the jet-veto efficiencies as a function of pt
#         pt            matched eff      resummed eff     fixed-order eff
   2.00000000E+001   4.63996360E-001   5.22284782E-001   4.60774143E-001
   2.50000000E+001   5.49527658E-001   6.02860633E-001   5.45786875E-001
   3.00000000E+001   6.20993224E-001   6.59858308E-001   6.17068533E-001
   3.50000000E+001   6.76581008E-001   6.99687277E-001   6.72113648E-001
   4.00000000E+001   7.21328410E-001   7.26995174E-001   7.16667414E-001
   4.50000000E+001   7.57368335E-001   7.45234755E-001   7.52873009E-001
   5.00000000E+001   7.87614469E-001   7.57038366E-001   7.83562730E-001
   5.50000000E+001   8.13258722E-001   7.64427011E-001   8.09784074E-001
   6.00000000E+001   8.34749968E-001   7.68918214E-001   8.31871310E-001
   6.50000000E+001   8.53922363E-001   7.71592872E-001   8.51599627E-001
   7.00000000E+001   8.70064349E-001   7.73171696E-001   8.68219188E-001
   7.50000000E+001   8.83469487E-001   7.74106723E-001   8.82015993E-001
   8.00000000E+001   8.95266324E-001   7.74668190E-001   8.94125116E-001
   8.50000000E+001   9.05965619E-001   7.75012634E-001   9.05069202E-001
   9.00000000E+001   9.15131428E-001   7.75229576E-001   9.14424589E-001
   9.50000000E+001   9.23543966E-001   7.75370170E-001   9.22983790E-001
   1.00000000E+002   9.30569299E-001   7.75463948E-001   9.30122626E-001
   1.05000000E+002   9.36887994E-001   7.75528253E-001   9.36529413E-001
   1.10000000E+002   9.42606951E-001   7.75573498E-001   9.42317122E-001
   1.15000000E+002   9.47734911E-001   7.75606087E-001   9.47498999E-001
   1.20000000E+002   9.52205983E-001   7.75630058E-001   9.52012685E-001
   1.25000000E+002   9.56072629E-001   7.75648024E-001   9.55913202E-001
   1.30000000E+002   9.59945542E-001   7.75661715E-001   9.59813209E-001
   1.35000000E+002   9.63365195E-001   7.75672302E-001   9.63254687E-001
   1.40000000E+002   9.66219573E-001   7.75680597E-001   9.66126784E-001
   1.45000000E+002   9.68967850E-001   7.75687172E-001   9.68889494E-001
   1.50000000E+002   9.71291850E-001   7.75692438E-001   9.71225357E-001
   1.55000000E+002   9.73788520E-001   7.75696697E-001   9.73731807E-001
   1.60000000E+002   9.75492939E-001   7.75700169E-001   9.75444349E-001
   1.65000000E+002   9.77325102E-001   7.75703023E-001   9.77283286E-001
   1.70000000E+002   9.78940758E-001   7.75705385E-001   9.78904621E-001
   1.75000000E+002   9.80517200E-001   7.75707352E-001   9.80485847E-001
   1.80000000E+002   9.81968495E-001   7.75709001E-001   9.81941189E-001
   1.85000000E+002   9.83274992E-001   7.75710390E-001   9.83251126E-001
   1.90000000E+002   9.84191453E-001   7.75711567E-001   9.84170523E-001
   1.95000000E+002   9.85380730E-001   7.75712569E-001   9.85362313E-001
   2.00000000E+002   9.86399661E-001   7.75713425E-001   9.86383405E-001
   2.05000000E+002   9.87274455E-001   7.75714160E-001   9.87260065E-001
   2.10000000E+002   9.88069069E-001   7.75714794E-001   9.88056295E-001
   2.15000000E+002   9.88945596E-001   7.75715343E-001   9.88934225E-001
   2.20000000E+002   9.89589885E-001   7.75715819E-001   9.89579737E-001
   2.25000000E+002   9.90270232E-001   7.75716234E-001   9.90261153E-001
   2.30000000E+002   9.90909062E-001   7.75716596E-001   9.90900921E-001
   2.35000000E+002   9.91509124E-001   7.75716914E-001   9.91501805E-001
   2.40000000E+002   9.91929852E-001   7.75717194E-001   9.91923260E-001
   2.45000000E+002   9.92478962E-001   7.75717440E-001   9.92473011E-001
