# ./jetvheto -in n3lo-fixed-order/H125-LHC13-R04-mb-0-mt-1725-xmur050-xmuf050-log.fxd -xQ 0.5 -out benchmarks-n3lo-smallR/H125-LHC13-R04-mb-0-mt-1725-xmur050-xmuf050-xQ050-N3LO+NNLLb.R0-1.5.res -scheme b -order 2 -ptmax 500.01 -small-r -fixed_order 3 -loop-mass t -R0 1.5
# process = H    
# collider = pp   
# rts =  13000.000
# M   =    125.000
# muR =     62.500
# muF =     62.500
# Q   =     62.500
# p   =      5.000
# include_c1_squared =   F
# loop_mass  = t   
# alphas(MZ) =    0.11800
# alphas(M) =    0.11264
# alphas(muR) =    0.12516
# Rjet =      0.400
# order = NNLL
# pdf name and set = PDF4LHC15_nnlo_mc.LHgrid,    0
# matching scheme = b
# total cross sections [nb] at LO, NLOdiff, NNLOdiff, N3LOdiff =     0.015885    0.020561    0.008998    0.001413
#----------------------------------------------------------------------
# the lines that follow give the jet-veto efficiencies as a function of pt
#         pt            matched eff      resummed eff     fixed-order eff
   2.00000000E+001   4.66372360E-001   5.09783002E-001   4.41643521E-001
   2.50000000E+001   5.50032127E-001   5.86070370E-001   5.29528045E-001
   3.00000000E+001   6.20290011E-001   6.39816125E-001   6.04131024E-001
   3.50000000E+001   6.76284224E-001   6.77229573E-001   6.63337130E-001
   4.00000000E+001   7.19774541E-001   7.02787365E-001   7.09302441E-001
   4.50000000E+001   7.57634949E-001   7.19775757E-001   7.49371437E-001
   5.00000000E+001   7.88190057E-001   7.30698347E-001   7.81702411E-001
   5.50000000E+001   8.14484788E-001   7.37480257E-001   8.09465789E-001
   6.00000000E+001   8.36239840E-001   7.41562395E-001   8.32379427E-001
   6.50000000E+001   8.56454494E-001   7.43962943E-001   8.53504482E-001
   7.00000000E+001   8.72114106E-001   7.45357749E-001   8.69854849E-001
   7.50000000E+001   8.86172190E-001   7.46168176E-001   8.84440584E-001
   8.00000000E+001   8.98916491E-001   7.46644112E-001   8.97583035E-001
   8.50000000E+001   9.10266696E-001   7.46928854E-001   9.09233323E-001
   9.00000000E+001   9.20309480E-001   7.47103479E-001   9.19502663E-001
   9.50000000E+001   9.28363101E-001   7.47213608E-001   9.27728280E-001
   1.00000000E+002   9.36066833E-001   7.47285110E-001   9.35563225E-001
   1.05000000E+002   9.42191027E-001   7.47332887E-001   9.41788367E-001
   1.10000000E+002   9.47827592E-001   7.47365700E-001   9.47503067E-001
   1.15000000E+002   9.53166515E-001   7.47388821E-001   9.52903001E-001
   1.20000000E+002   9.57981936E-001   7.47405496E-001   9.57766396E-001
   1.25000000E+002   9.61999320E-001   7.47417779E-001   9.61821780E-001
   1.30000000E+002   9.65468037E-001   7.47427000E-001   9.65320871E-001
   1.35000000E+002   9.68912680E-001   7.47434038E-001   9.68789919E-001
   1.40000000E+002   9.72054355E-001   7.47439491E-001   9.71951352E-001
   1.45000000E+002   9.74789782E-001   7.47443773E-001   9.74702884E-001
   1.50000000E+002   9.76928153E-001   7.47447176E-001   9.76854447E-001
   1.55000000E+002   9.79352422E-001   7.47449908E-001   9.79289601E-001
   1.60000000E+002   9.81524475E-001   7.47452123E-001   9.81470679E-001
   1.65000000E+002   9.82863188E-001   7.47453934E-001   9.82816919E-001
   1.70000000E+002   9.84587413E-001   7.47455426E-001   9.84547446E-001
   1.75000000E+002   9.86177189E-001   7.47456665E-001   9.86142527E-001
   1.80000000E+002   9.87395799E-001   7.47457700E-001   9.87365627E-001
   1.85000000E+002   9.88515929E-001   7.47458570E-001   9.88489569E-001
   1.90000000E+002   9.89662910E-001   7.47459305E-001   9.89639801E-001
   1.95000000E+002   9.90722046E-001   7.47459930E-001   9.90701722E-001
   2.00000000E+002   9.91658463E-001   7.47460463E-001   9.91640532E-001
   2.05000000E+002   9.92397138E-001   7.47460920E-001   9.92381271E-001
   2.10000000E+002   9.93138435E-001   7.47461313E-001   9.93124356E-001
   2.15000000E+002   9.93714695E-001   7.47461653E-001   9.93702166E-001
   2.20000000E+002   9.94535147E-001   7.47461948E-001   9.94523970E-001
   2.25000000E+002   9.94961211E-001   7.47462205E-001   9.94951215E-001
   2.30000000E+002   9.95485685E-001   7.47462430E-001   9.95476723E-001
   2.35000000E+002   9.95867572E-001   7.47462626E-001   9.95859519E-001
   2.40000000E+002   9.96284006E-001   7.47462799E-001   9.96276754E-001
   2.45000000E+002   9.96771024E-001   7.47462951E-001   9.96764480E-001
