# ./jetvheto -in n3lo-fixed-order/H125-LHC13-R04-mb-475-mt-1725-xmur100-xmuf100-log.fxd -xQ 0.75 -out benchmarks-n3lo-smallR/H125-LHC13-R04-mb-475-mt-1725-xmur100-xmuf100-xQ075-N3LO+NNLLa.R0-1.5.res -scheme a -order 2 -ptmax 500.01 -fixed_order 3 -small-r -loop-mass t+b -R0 1.5
# process = H    
# collider = pp   
# rts =  13000.000
# M   =    125.000
# muR =    125.000
# muF =    125.000
# Q   =     93.750
# p   =      5.000
# include_c1_squared =   F
# loop_mass  = t+b 
# alphas(MZ) =    0.11800
# alphas(M) =    0.11264
# alphas(muR) =    0.11264
# Rjet =      0.400
# order = NNLL
# pdf name and set = PDF4LHC15_nnlo_mc.LHgrid,    0
# matching scheme = a
# total cross sections [nb] at LO, NLOdiff, NNLOdiff, N3LOdiff =     0.012292    0.016994    0.010146    0.003834
#----------------------------------------------------------------------
# the lines that follow give the jet-veto efficiencies as a function of pt
#         pt            matched eff      resummed eff     fixed-order eff
   2.00000000E+001   4.66243904E-001   5.39244792E-001   4.51319368E-001
   2.50000000E+001   5.53316840E-001   6.19680994E-001   5.36825698E-001
   3.00000000E+001   6.26357736E-001   6.76469855E-001   6.08858675E-001
   3.50000000E+001   6.83395551E-001   7.16257801E-001   6.64947540E-001
   4.00000000E+001   7.29131631E-001   7.43720062E-001   7.10355778E-001
   4.50000000E+001   7.65956636E-001   7.62166680E-001   7.47456588E-001
   5.00000000E+001   7.96727108E-001   7.73966649E-001   7.78978104E-001
   5.50000000E+001   8.22587859E-001   7.80872788E-001   8.05930820E-001
   6.00000000E+001   8.44036393E-001   7.84214256E-001   8.28717070E-001
   6.50000000E+001   8.62942385E-001   7.85023235E-001   8.49064316E-001
   7.00000000E+001   8.78628933E-001   7.84109699E-001   8.66268025E-001
   7.50000000E+001   8.91361576E-001   7.82106403E-001   8.80530885E-001
   8.00000000E+001   9.02495875E-001   7.79500094E-001   8.93116387E-001
   8.50000000E+001   9.12513067E-001   7.76650635E-001   9.04462211E-001
   9.00000000E+001   9.21039126E-001   7.73809083E-001   9.14193494E-001
   9.50000000E+001   9.28874863E-001   7.71135018E-001   9.23082480E-001
   1.00000000E+002   9.35381979E-001   7.68716671E-001   9.30511231E-001
   1.05000000E+002   9.41287520E-001   7.66590482E-001   9.37200842E-001
   1.10000000E+002   9.46625067E-001   7.64758484E-001   9.43198469E-001
   1.15000000E+002   9.51461434E-001   7.63202291E-001   9.48587632E-001
   1.20000000E+002   9.55649778E-001   7.61893082E-001   9.53237889E-001
   1.25000000E+002   9.59342511E-001   7.60798484E-001   9.57315271E-001
   1.30000000E+002   9.63078128E-001   7.59886587E-001   9.61366818E-001
   1.35000000E+002   9.66385008E-001   7.59128094E-001   9.64936627E-001
   1.40000000E+002   9.69157930E-001   7.58497245E-001   9.67929190E-001
   1.45000000E+002   9.71846183E-001   7.57972011E-001   9.70799436E-001
   1.50000000E+002   9.74126256E-001   7.57533896E-001   9.73231918E-001
   1.55000000E+002   9.76613163E-001   7.57167554E-001   9.75845039E-001
   1.60000000E+002   9.78276127E-001   7.56860353E-001   9.77615642E-001
   1.65000000E+002   9.80094373E-001   7.56601936E-001   9.79523686E-001
   1.70000000E+002   9.81685483E-001   7.56383838E-001   9.81190793E-001
   1.75000000E+002   9.83243941E-001   7.56199140E-001   9.82813463E-001
   1.80000000E+002   9.84668548E-001   7.56042188E-001   9.84292712E-001
   1.85000000E+002   9.85958749E-001   7.55908355E-001   9.85629591E-001
   1.90000000E+002   9.86854873E-001   7.55793844E-001   9.86566035E-001
   1.95000000E+002   9.88024199E-001   7.55695537E-001   9.87769612E-001
   2.00000000E+002   9.89016249E-001   7.55610863E-001   9.88791277E-001
   2.05000000E+002   9.89866708E-001   7.55537697E-001   9.89667405E-001
   2.10000000E+002   9.90635895E-001   7.55474278E-001   9.90458863E-001
   2.15000000E+002   9.91481057E-001   7.55419139E-001   9.91323305E-001
   2.20000000E+002   9.92096413E-001   7.55371060E-001   9.91955592E-001
   2.25000000E+002   9.92745638E-001   7.55329016E-001   9.92619584E-001
   2.30000000E+002   9.93349030E-001   7.55292150E-001   9.93235932E-001
   2.35000000E+002   9.93906502E-001   7.55259736E-001   9.93804803E-001
   2.40000000E+002   9.94284335E-001   7.55231165E-001   9.94192740E-001
   2.45000000E+002   9.94796330E-001   7.55205918E-001   9.94713610E-001
