# ./jetvheto -in n3lo-fixed-order/H125-LHC13-R04-mb-0-mt-1725-xmur200-xmuf200-log.fxd -xQ 0.5 -out benchmarks-n3lo-smallR/H125-LHC13-R04-mb-0-mt-1725-xmur200-xmuf200-xQ050-N3LO+NNLLb.res -scheme b -order 2 -ptmax 500.01 -fixed_order 3 -loop-mass t
# process = H    
# collider = pp   
# rts =  13000.000
# M   =    125.000
# muR =    250.000
# muF =    250.000
# Q   =     62.500
# p   =      5.000
# include_c1_squared =   F
# loop_mass  = t   
# alphas(MZ) =    0.11800
# alphas(M) =    0.11264
# alphas(muR) =    0.10244
# Rjet =      0.400
# order = NNLL
# pdf name and set = PDF4LHC15_nnlo_mc.LHgrid,    0
# matching scheme = b
# total cross sections [nb] at LO, NLOdiff, NNLOdiff, N3LOdiff =     0.011967    0.015254    0.010464    0.005358
#----------------------------------------------------------------------
# the lines that follow give the jet-veto efficiencies as a function of pt
#         pt            matched eff      resummed eff     fixed-order eff
   2.00000000E+001   4.47970104E-001   5.48405322E-001   4.19525806E-001
   2.50000000E+001   5.34352733E-001   6.34336954E-001   5.16200852E-001
   3.00000000E+001   6.02310275E-001   6.95196196E-001   5.89623030E-001
   3.50000000E+001   6.58382707E-001   7.37766350E-001   6.49107270E-001
   4.00000000E+001   7.04421709E-001   7.66988986E-001   6.97362384E-001
   4.50000000E+001   7.41754369E-001   7.86532976E-001   7.36230817E-001
   5.00000000E+001   7.74524193E-001   7.99199479E-001   7.70209465E-001
   5.50000000E+001   8.01218176E-001   8.07144885E-001   7.97830275E-001
   6.00000000E+001   8.23982152E-001   8.11988380E-001   8.21336887E-001
   6.50000000E+001   8.43392680E-001   8.14883057E-001   8.41336454E-001
   7.00000000E+001   8.61011450E-001   8.16599141E-001   8.59418337E-001
   7.50000000E+001   8.75600384E-001   8.17620586E-001   8.74365717E-001
   8.00000000E+001   8.88351645E-001   8.18237366E-001   8.87392392E-001
   8.50000000E+001   8.99722144E-001   8.18618059E-001   8.98973786E-001
   9.00000000E+001   9.09480499E-001   8.18859348E-001   9.08893151E-001
   9.50000000E+001   9.18603253E-001   8.19016677E-001   9.18139180E-001
   1.00000000E+002   9.26322271E-001   8.19122220E-001   9.25953071E-001
   1.05000000E+002   9.33107514E-001   8.19194994E-001   9.32811557E-001
   1.10000000E+002   9.39023567E-001   8.19246455E-001   9.38784590E-001
   1.15000000E+002   9.44618065E-001   8.19283685E-001   9.44423681E-001
   1.20000000E+002   9.49706073E-001   8.19311177E-001   9.49546842E-001
   1.25000000E+002   9.53939270E-001   8.19331850E-001   9.53807992E-001
   1.30000000E+002   9.57969600E-001   8.19347648E-001   9.57860659E-001
   1.35000000E+002   9.61436226E-001   8.19359894E-001   9.61345268E-001
   1.40000000E+002   9.64896786E-001   8.19369509E-001   9.64820396E-001
   1.45000000E+002   9.67663880E-001   8.19377143E-001   9.67599385E-001
   1.50000000E+002   9.70372779E-001   8.19383267E-001   9.70318038E-001
   1.55000000E+002   9.72791316E-001   8.19388224E-001   9.72744628E-001
   1.60000000E+002   9.74915646E-001   8.19392271E-001   9.74875638E-001
   1.65000000E+002   9.76773403E-001   8.19395599E-001   9.76738971E-001
   1.70000000E+002   9.78730630E-001   8.19398356E-001   9.78700868E-001
   1.75000000E+002   9.80327898E-001   8.19400654E-001   9.80302074E-001
   1.80000000E+002   9.82048335E-001   8.19402581E-001   9.82025840E-001
   1.85000000E+002   9.83289177E-001   8.19404205E-001   9.83269514E-001
   1.90000000E+002   9.84561461E-001   8.19405581E-001   9.84544214E-001
   1.95000000E+002   9.85688585E-001   8.19406753E-001   9.85673408E-001
   2.00000000E+002   9.86915146E-001   8.19407755E-001   9.86901748E-001
   2.05000000E+002   9.87772452E-001   8.19408616E-001   9.87760591E-001
   2.10000000E+002   9.88591890E-001   8.19409358E-001   9.88581359E-001
   2.15000000E+002   9.89474972E-001   8.19410000E-001   9.89465597E-001
   2.20000000E+002   9.90283592E-001   8.19410558E-001   9.90275224E-001
   2.25000000E+002   9.90924442E-001   8.19411044E-001   9.90916954E-001
   2.30000000E+002   9.91531501E-001   8.19411469E-001   9.91524786E-001
   2.35000000E+002   9.92162481E-001   8.19411841E-001   9.92156444E-001
   2.40000000E+002   9.92715327E-001   8.19412169E-001   9.92709889E-001
   2.45000000E+002   9.93249970E-001   8.19412458E-001   9.93245060E-001
