# ./jetvheto -in n3lo-fixed-order/H125-LHC13-R04-mb-0-mt-1725-xmur100-xmuf100-log.fxd -xQ 1.0 -out benchmarks-n3lo-smallR/H125-LHC13-R04-mb-0-mt-1725-xmur100-xmuf100-xQ100-NNLO+NNLLa.R0-1.5.res -scheme a -order 2 -ptmax 500.01 -small-r -fixed_order 2 -loop-mass t -R0 1.5
# process = H    
# collider = pp   
# rts =  13000.000
# M   =    125.000
# muR =    125.000
# muF =    125.000
# Q   =    125.000
# p   =      5.000
# include_c1_squared =   F
# loop_mass  = t   
# alphas(MZ) =    0.11800
# alphas(M) =    0.11264
# alphas(muR) =    0.11264
# Rjet =      0.400
# order = NNLL
# pdf name and set = PDF4LHC15_nnlo_mc.LHgrid,    0
# matching scheme = a
# total cross sections [nb] at LO, NLOdiff, NNLOdiff, N3LOdiff =     0.013801    0.017514    0.010146    0.003834
#----------------------------------------------------------------------
# the lines that follow give the jet-veto efficiencies as a function of pt
#         pt            matched eff      resummed eff     fixed-order eff
   2.00000000E+001   5.54350994E-001   6.12895015E-001   5.12111256E-001
   2.50000000E+001   6.44517843E-001   6.99336175E-001   5.93117916E-001
   3.00000000E+001   7.13686457E-001   7.59653715E-001   6.55183932E-001
   3.50000000E+001   7.67560762E-001   8.01413899E-001   7.04312652E-001
   4.00000000E+001   8.09978889E-001   8.29837246E-001   7.44112204E-001
   4.50000000E+001   8.43437779E-001   8.48530477E-001   7.76741158E-001
   5.00000000E+001   8.70116496E-001   8.60049510E-001   8.03999724E-001
   5.50000000E+001   8.91395563E-001   8.66247803E-001   8.26956486E-001
   6.00000000E+001   9.08526622E-001   8.68483181E-001   8.46582419E-001
   6.50000000E+001   9.22286292E-001   8.67772054E-001   8.63449624E-001
   7.00000000E+001   9.33239458E-001   8.64897438E-001   8.77952928E-001
   7.50000000E+001   9.42118345E-001   8.60470987E-001   8.90657633E-001
   8.00000000E+001   9.49264109E-001   8.54980394E-001   9.01784587E-001
   8.50000000E+001   9.54940091E-001   8.48818034E-001   9.11498483E-001
   9.00000000E+001   9.59549218E-001   8.42301454E-001   9.20097826E-001
   9.50000000E+001   9.63238826E-001   8.35683750E-001   9.27666371E-001
   1.00000000E+002   9.66286857E-001   8.29165056E-001   9.34417045E-001
   1.05000000E+002   9.68821695E-001   8.22898053E-001   9.40434122E-001
   1.10000000E+002   9.70902660E-001   8.16992747E-001   9.45748990E-001
   1.15000000E+002   9.72762856E-001   8.11522539E-001   9.50569353E-001
   1.20000000E+002   9.74377085E-001   8.06528299E-001   9.54867362E-001
   1.25000000E+002   9.75856361E-001   8.02024367E-001   9.58753493E-001
   1.30000000E+002   9.77229531E-001   7.98004373E-001   9.62267892E-001
   1.35000000E+002   9.78499996E-001   7.94446848E-001   9.65429419E-001
   1.40000000E+002   9.79697348E-001   7.91320283E-001   9.68287981E-001
   1.45000000E+002   9.80874916E-001   7.88587388E-001   9.70915959E-001
   1.50000000E+002   9.81954405E-001   7.86208475E-001   9.73259576E-001
   1.55000000E+002   9.83024285E-001   7.84143874E-001   9.75426757E-001
   1.60000000E+002   9.84051932E-001   7.82355606E-001   9.77405590E-001
   1.65000000E+002   9.85018366E-001   7.80808468E-001   9.79196168E-001
   1.70000000E+002   9.85950490E-001   7.79470536E-001   9.80841717E-001
   1.75000000E+002   9.86811179E-001   7.78313358E-001   9.82320552E-001
   1.80000000E+002   9.87647432E-001   7.77311890E-001   9.83692327E-001
   1.85000000E+002   9.88426912E-001   7.76444307E-001   9.84936490E-001
   1.90000000E+002   9.89175903E-001   7.75691721E-001   9.86089030E-001
   1.95000000E+002   9.89890598E-001   7.75037876E-001   9.87154723E-001
   2.00000000E+002   9.90550022E-001   7.74468829E-001   9.88120114E-001
   2.05000000E+002   9.91184507E-001   7.73972653E-001   9.89021653E-001
   2.10000000E+002   9.91765583E-001   7.73539163E-001   9.89836384E-001
   2.15000000E+002   9.92304009E-001   7.73159665E-001   9.90579634E-001
   2.20000000E+002   9.92821695E-001   7.72826740E-001   9.91277142E-001
   2.25000000E+002   9.93301420E-001   7.72534059E-001   9.91915136E-001
   2.30000000E+002   9.93752652E-001   7.72276211E-001   9.92505931E-001
   2.35000000E+002   9.94183601E-001   7.72048572E-001   9.93060180E-001
   2.40000000E+002   9.94571542E-001   7.71847183E-001   9.93557338E-001
   2.45000000E+002   9.94942429E-001   7.71668648E-001   9.94025107E-001
