# ./jetvheto -in n3lo-fixed-order/H125-LHC13-R04-mb-0-mt-1725-xmur100-xmuf100-log.fxd -xQ 0.75 -out benchmarks-n3lo-smallR/H125-LHC13-R04-mb-0-mt-1725-xmur100-xmuf100-xQ075-N3LO+NNLLb.res -scheme b -order 2 -ptmax 500.01 -fixed_order 3 -loop-mass t
# process = H    
# collider = pp   
# rts =  13000.000
# M   =    125.000
# muR =    125.000
# muF =    125.000
# Q   =     93.750
# p   =      5.000
# include_c1_squared =   F
# loop_mass  = t   
# alphas(MZ) =    0.11800
# alphas(M) =    0.11264
# alphas(muR) =    0.11264
# Rjet =      0.400
# order = NNLL
# pdf name and set = PDF4LHC15_nnlo_mc.LHgrid,    0
# matching scheme = b
# total cross sections [nb] at LO, NLOdiff, NNLOdiff, N3LOdiff =     0.013801    0.017514    0.010146    0.003834
#----------------------------------------------------------------------
# the lines that follow give the jet-veto efficiencies as a function of pt
#         pt            matched eff      resummed eff     fixed-order eff
   2.00000000E+001   4.51471945E-001   5.45104179E-001   4.21593782E-001
   2.50000000E+001   5.37631856E-001   6.32352102E-001   5.13960990E-001
   3.00000000E+001   6.10364020E-001   6.94393823E-001   5.91015610E-001
   3.50000000E+001   6.67472546E-001   7.38169022E-001   6.50645918E-001
   4.00000000E+001   7.13800955E-001   7.68635614E-001   6.98836983E-001
   4.50000000E+001   7.51330539E-001   7.89332045E-001   7.37928057E-001
   5.00000000E+001   7.83038610E-001   8.02802870E-001   7.71030473E-001
   5.50000000E+001   8.10006557E-001   8.10935411E-001   7.99275639E-001
   6.00000000E+001   8.32586341E-001   8.15162646E-001   8.23059681E-001
   6.50000000E+001   8.52671897E-001   8.16597987E-001   8.44243758E-001
   7.00000000E+001   8.69452430E-001   8.16115606E-001   8.62070819E-001
   7.50000000E+001   8.83311093E-001   8.14399133E-001   8.76925464E-001
   8.00000000E+001   8.95450990E-001   8.11975495E-001   8.89967148E-001
   8.50000000E+001   9.06415270E-001   8.09235767E-001   9.01728487E-001
   9.00000000E+001   9.15721340E-001   8.06454664E-001   9.11747759E-001
   9.50000000E+001   9.24270884E-001   8.03809080E-001   9.20909613E-001
   1.00000000E+002   9.31404416E-001   8.01399464E-001   9.28579537E-001
   1.05000000E+002   9.37825882E-001   7.99270535E-001   9.35454626E-001
   1.10000000E+002   9.43619474E-001   7.97429717E-001   9.41628668E-001
   1.15000000E+002   9.48849437E-001   7.95861981E-001   9.47177133E-001
   1.20000000E+002   9.53402327E-001   7.94540491E-001   9.51996886E-001
   1.25000000E+002   9.57356459E-001   7.93433980E-001   9.56173934E-001
   1.30000000E+002   9.61356852E-001   7.92511094E-001   9.60356305E-001
   1.35000000E+002   9.64856914E-001   7.91742766E-001   9.64008440E-001
   1.40000000E+002   9.67812649E-001   7.91103277E-001   9.67091995E-001
   1.45000000E+002   9.70649782E-001   7.90570543E-001   9.70034899E-001
   1.50000000E+002   9.73053386E-001   7.90125965E-001   9.72527497E-001
   1.55000000E+002   9.75665072E-001   7.89754080E-001   9.75212455E-001
   1.60000000E+002   9.77430379E-001   7.89442132E-001   9.77041107E-001
   1.65000000E+002   9.79334751E-001   7.89179656E-001   9.78998050E-001
   1.70000000E+002   9.81001684E-001   7.88958085E-001   9.80709596E-001
   1.75000000E+002   9.82625059E-001   7.88770412E-001   9.82370623E-001
   1.80000000E+002   9.84117545E-001   7.88610909E-001   9.83895197E-001
   1.85000000E+002   9.85459412E-001   7.88474883E-001   9.85264523E-001
   1.90000000E+002   9.86396467E-001   7.88358484E-001   9.86225466E-001
   1.95000000E+002   9.87607354E-001   7.88258546E-001   9.87456496E-001
   2.00000000E+002   9.88634495E-001   7.88172462E-001   9.88501106E-001
   2.05000000E+002   9.89518178E-001   7.88098071E-001   9.89399966E-001
   2.10000000E+002   9.90309149E-001   7.88033587E-001   9.90204115E-001
   2.15000000E+002   9.91189379E-001   7.87977520E-001   9.91095719E-001
   2.20000000E+002   9.91825426E-001   7.87928629E-001   9.91741805E-001
   2.25000000E+002   9.92497190E-001   7.87885874E-001   9.92422310E-001
   2.30000000E+002   9.93123810E-001   7.87848382E-001   9.93056602E-001
   2.35000000E+002   9.93703957E-001   7.87815418E-001   9.93643503E-001
   2.40000000E+002   9.94096210E-001   7.87786361E-001   9.94041766E-001
   2.45000000E+002   9.94624581E-001   7.87760684E-001   9.94575393E-001
