# ./jetvheto -in n3lo-fixed-order/H125-LHC13-R04-mb-0-mt-1725-xmur050-xmuf025-log.fxd -xQ 0.5 -out benchmarks-n3lo-smallR/H125-LHC13-R04-mb-0-mt-1725-xmur050-xmuf025-xQ050-NNLO+NNLLb.R0-1.0.res -scheme b -order 2 -ptmax 500.01 -small-r -fixed_order 2 -loop-mass t -R0 1.0
# process = H    
# collider = pp   
# rts =  13000.000
# M   =    125.000
# muR =     62.500
# muF =     31.250
# Q   =     62.500
# p   =      5.000
# include_c1_squared =   F
# loop_mass  = t   
# alphas(MZ) =    0.11800
# alphas(M) =    0.11264
# alphas(muR) =    0.12516
# Rjet =      0.400
# order = NNLL
# pdf name and set = PDF4LHC15_nnlo_mc.LHgrid,    0
# matching scheme = b
# total cross sections [nb] at LO, NLOdiff, NNLOdiff, N3LOdiff =     0.014513    0.020714    0.009723    0.001827
#----------------------------------------------------------------------
# the lines that follow give the jet-veto efficiencies as a function of pt
#         pt            matched eff      resummed eff     fixed-order eff
   2.00000000E+001   4.14543721E-001   4.86055138E-001   3.17487847E-001
   2.50000000E+001   4.97537121E-001   5.67021147E-001   4.26754407E-001
   3.00000000E+001   5.64800163E-001   6.25003838E-001   5.11966558E-001
   3.50000000E+001   6.20331656E-001   6.66004461E-001   5.80470117E-001
   4.00000000E+001   6.66567811E-001   6.94525678E-001   6.36364792E-001
   4.50000000E+001   7.05467897E-001   7.13908037E-001   6.82611528E-001
   5.00000000E+001   7.38787074E-001   7.26715807E-001   7.21540031E-001
   5.50000000E+001   7.67407757E-001   7.34947373E-001   7.54444177E-001
   6.00000000E+001   7.92357798E-001   7.40118759E-001   7.82634803E-001
   6.50000000E+001   8.14272964E-001   7.43323779E-001   8.06977613E-001
   7.00000000E+001   8.33618157E-001   7.45305822E-001   8.28128874E-001
   7.50000000E+001   8.50540431E-001   7.46542441E-001   8.46387939E-001
   8.00000000E+001   8.65729353E-001   7.47327730E-001   8.62566302E-001
   8.50000000E+001   8.79134997E-001   7.47837973E-001   8.76705809E-001
   9.00000000E+001   8.91128615E-001   7.48178010E-001   8.89246129E-001
   9.50000000E+001   9.01713436E-001   7.48410474E-001   9.00241110E-001
   1.00000000E+002   9.11251891E-001   7.48573309E-001   9.10089763E-001
   1.05000000E+002   9.19824191E-001   7.48689951E-001   9.18898671E-001
   1.10000000E+002   9.27453111E-001   7.48775210E-001   9.26709709E-001
   1.15000000E+002   9.34384008E-001   7.48838666E-001   9.33781944E-001
   1.20000000E+002   9.40610979E-001   7.48886659E-001   9.40119549E-001
   1.25000000E+002   9.46137797E-001   7.48923482E-001   9.45733708E-001
   1.30000000E+002   9.51183415E-001   7.48952097E-001   9.50848857E-001
   1.35000000E+002   9.55731430E-001   7.48974591E-001   9.55452646E-001
   1.40000000E+002   9.59863288E-001   7.48992458E-001   9.59629530E-001
   1.45000000E+002   9.63651523E-001   7.49006783E-001   9.63454390E-001
   1.50000000E+002   9.67043258E-001   7.49018367E-001   9.66876104E-001
   1.55000000E+002   9.70129217E-001   7.49027808E-001   9.69986758E-001
   1.60000000E+002   9.72960015E-001   7.49035558E-001   9.72838016E-001
   1.65000000E+002   9.75536141E-001   7.49041963E-001   9.75431192E-001
   1.70000000E+002   9.77851163E-001   7.49047289E-001   9.77760487E-001
   1.75000000E+002   9.79968266E-001   7.49051744E-001   9.79889608E-001
   1.80000000E+002   9.81906272E-001   7.49055489E-001   9.81837773E-001
   1.85000000E+002   9.83659818E-001   7.49058655E-001   9.83599946E-001
   1.90000000E+002   9.85285163E-001   7.49061342E-001   9.85232651E-001
   1.95000000E+002   9.86782352E-001   7.49063635E-001   9.86736143E-001
   2.00000000E+002   9.88126765E-001   7.49065599E-001   9.88085975E-001
   2.05000000E+002   9.89378784E-001   7.49067287E-001   9.89342669E-001
   2.10000000E+002   9.90534062E-001   7.49068745E-001   9.90501995E-001
   2.15000000E+002   9.91536773E-001   7.49070007E-001   9.91508223E-001
   2.20000000E+002   9.92486867E-001   7.49071105E-001   9.92461383E-001
   2.25000000E+002   9.93369541E-001   7.49072062E-001   9.93346737E-001
   2.30000000E+002   9.94152891E-001   7.49072900E-001   9.94132434E-001
   2.35000000E+002   9.94868533E-001   7.49073634E-001   9.94850142E-001
   2.40000000E+002   9.95513311E-001   7.49074281E-001   9.95496740E-001
   2.45000000E+002   9.96121399E-001   7.49074851E-001   9.96106437E-001
