# ./jetvheto -in n3lo-fixed-order/H125-LHC13-R04-mb-475-mt-1725-xmur100-xmuf100-log.fxd -xQ 0.333 -out benchmarks-n3lo-smallR/H125-LHC13-R04-mb-475-mt-1725-xmur100-xmuf100-xQ033-NNLO+NNLLb.R0-1.0.res -scheme b -order 2 -ptmax 500.01 -fixed_order 2 -small-r -loop-mass t+b -R0 1.0
# process = H    
# collider = pp   
# rts =  13000.000
# M   =    125.000
# muR =    125.000
# muF =    125.000
# Q   =     41.625
# p   =      5.000
# include_c1_squared =   F
# loop_mass  = t+b 
# alphas(MZ) =    0.11800
# alphas(M) =    0.11264
# alphas(muR) =    0.11264
# Rjet =      0.400
# order = NNLL
# pdf name and set = PDF4LHC15_nnlo_mc.LHgrid,    0
# matching scheme = b
# total cross sections [nb] at LO, NLOdiff, NNLOdiff, N3LOdiff =     0.012292    0.016994    0.010146    0.003834
#----------------------------------------------------------------------
# the lines that follow give the jet-veto efficiencies as a function of pt
#         pt            matched eff      resummed eff     fixed-order eff
   2.00000000E+001   3.86276064E-001   5.06140607E-001   3.17550639E-001
   2.50000000E+001   4.69159340E-001   5.82948953E-001   4.27790656E-001
   3.00000000E+001   5.38073413E-001   6.34773689E-001   5.12989288E-001
   3.50000000E+001   5.96200199E-001   6.68279594E-001   5.80985186E-001
   4.00000000E+001   6.45420184E-001   6.89038410E-001   6.36189278E-001
   4.50000000E+001   6.87497723E-001   7.01523713E-001   6.81851830E-001
   5.00000000E+001   7.23655132E-001   7.08958623E-001   7.20147070E-001
   5.50000000E+001   7.54707246E-001   7.13420655E-001   7.52478916E-001
   6.00000000E+001   7.81705665E-001   7.16150140E-001   7.80255597E-001
   6.50000000E+001   8.05172176E-001   7.17861249E-001   8.04204225E-001
   7.00000000E+001   8.25577174E-001   7.18962252E-001   8.24914709E-001
   7.50000000E+001   8.43406297E-001   7.19688979E-001   8.42942328E-001
   8.00000000E+001   8.59156844E-001   7.20180304E-001   8.58824881E-001
   8.50000000E+001   8.72930395E-001   7.20519907E-001   8.72688093E-001
   9.00000000E+001   8.85234404E-001   7.20759432E-001   8.85054448E-001
   9.50000000E+001   8.96066827E-001   7.20931507E-001   8.95930965E-001
   1.00000000E+002   9.05708577E-001   7.21057213E-001   9.05604482E-001
   1.05000000E+002   9.14353550E-001   7.21150455E-001   9.14272722E-001
   1.10000000E+002   9.21980546E-001   7.21220585E-001   9.21917006E-001
   1.15000000E+002   9.28898433E-001   7.21274008E-001   9.28847935E-001
   1.20000000E+002   9.35019934E-001   7.21315182E-001   9.34979383E-001
   1.25000000E+002   9.40624149E-001   7.21347258E-001   9.40591281E-001
   1.30000000E+002   9.45658070E-001   7.21372495E-001   9.45631198E-001
   1.35000000E+002   9.50232658E-001   7.21392534E-001   9.50210516E-001
   1.40000000E+002   9.54331462E-001   7.21408581E-001   9.54313076E-001
   1.45000000E+002   9.58122975E-001   7.21421533E-001   9.58107610E-001
   1.50000000E+002   9.61503270E-001   7.21432065E-001   9.61490343E-001
   1.55000000E+002   9.64628763E-001   7.21440688E-001   9.64617823E-001
   1.60000000E+002   9.67455567E-001   7.21447794E-001   9.67446259E-001
   1.65000000E+002   9.70037557E-001   7.21453684E-001   9.70029596E-001
   1.70000000E+002   9.72405921E-001   7.21458596E-001   9.72399079E-001
   1.75000000E+002   9.74544318E-001   7.21462712E-001   9.74538410E-001
   1.80000000E+002   9.76512592E-001   7.21466180E-001   9.76507469E-001
   1.85000000E+002   9.78309784E-001   7.21469116E-001   9.78305324E-001
   1.90000000E+002   9.79963937E-001   7.21471611E-001   9.79960040E-001
   1.95000000E+002   9.81507499E-001   7.21473743E-001   9.81504081E-001
   2.00000000E+002   9.82904304E-001   7.21475570E-001   9.82901295E-001
   2.05000000E+002   9.84202100E-001   7.21477143E-001   9.84199444E-001
   2.10000000E+002   9.85386046E-001   7.21478501E-001   9.85383694E-001
   2.15000000E+002   9.86452844E-001   7.21479679E-001   9.86450755E-001
   2.20000000E+002   9.87459531E-001   7.21480703E-001   9.87457670E-001
   2.25000000E+002   9.88380103E-001   7.21481597E-001   9.88378441E-001
   2.30000000E+002   9.89228917E-001   7.21482379E-001   9.89227429E-001
   2.35000000E+002   9.90022964E-001   7.21483065E-001   9.90021629E-001
   2.40000000E+002   9.90735963E-001   7.21483670E-001   9.90734762E-001
   2.45000000E+002   9.91412119E-001   7.21484203E-001   9.91411035E-001
