# ./jetvheto -in n3lo-fixed-order/H125-LHC13-R04-heft-xmur100-xmuf050-log.fxd -xQ 0.50 -out benchmarks-n3lo-smallR/H125-LHC13-R04-heft-xmur100-xmuf050-xQ050-NNLO+NNLLa.R0-1.5.res -scheme a -order 2 -ptmax 500.01 -fixed_order 2 -small-r -R0 1.5
# process = H    
# collider = pp   
# rts =  13000.000
# M   =    125.000
# muR =    125.000
# muF =     62.500
# Q   =     62.500
# p   =      5.000
# include_c1_squared =   F
# loop_mass  = none
# alphas(MZ) =    0.11800
# alphas(M) =    0.11264
# alphas(muR) =    0.11264
# Rjet =      0.400
# order = NNLL
# pdf name and set = PDF4LHC15_nnlo_mc.LHgrid,    0
# matching scheme = a
# total cross sections [nb] at LO, NLOdiff, NNLOdiff, N3LOdiff =     0.012193    0.016617    0.010424    0.004163
#----------------------------------------------------------------------
# the lines that follow give the jet-veto efficiencies as a function of pt
#         pt            matched eff      resummed eff     fixed-order eff
   2.00000000E+001   4.74629540E-001   5.05564255E-001   5.00005148E-001
   2.50000000E+001   5.63442755E-001   5.88152077E-001   5.80577103E-001
   3.00000000E+001   6.33083666E-001   6.47308730E-001   6.42777972E-001
   3.50000000E+001   6.87936353E-001   6.89183493E-001   6.92001685E-001
   4.00000000E+001   7.31706226E-001   7.18326027E-001   7.32013126E-001
   4.50000000E+001   7.66963339E-001   7.38130947E-001   7.65088462E-001
   5.00000000E+001   7.95696944E-001   7.51217803E-001   7.92811925E-001
   5.50000000E+001   8.19432799E-001   7.59627174E-001   8.16302258E-001
   6.00000000E+001   8.39253401E-001   7.64909977E-001   8.36308346E-001
   6.50000000E+001   8.56150685E-001   7.68183495E-001   8.53585472E-001
   7.00000000E+001   8.70757246E-001   7.70207428E-001   8.68621111E-001
   7.50000000E+001   8.83384436E-001   7.71469861E-001   8.81650703E-001
   8.00000000E+001   8.94492868E-001   7.72271151E-001   8.93105029E-001
   8.50000000E+001   9.04320331E-001   7.72791386E-001   9.03215964E-001
   9.00000000E+001   9.13048020E-001   7.73137844E-001   9.12169984E-001
   9.50000000E+001   9.20768252E-001   7.73374563E-001   9.20068434E-001
   1.00000000E+002   9.27666504E-001   7.73540291E-001   9.27106365E-001
   1.05000000E+002   9.33812867E-001   7.73658954E-001   9.33362021E-001
   1.10000000E+002   9.39352374E-001   7.73745656E-001   9.38987288E-001
   1.15000000E+002   9.44312353E-001   7.73810166E-001   9.44014833E-001
   1.20000000E+002   9.48801531E-001   7.73858943E-001   9.48557509E-001
   1.25000000E+002   9.52857585E-001   7.73896359E-001   9.52656183E-001
   1.30000000E+002   9.56509486E-001   7.73925430E-001   9.56342226E-001
   1.35000000E+002   9.59836192E-001   7.73948280E-001   9.59696470E-001
   1.40000000E+002   9.62861829E-001   7.73966426E-001   9.62744448E-001
   1.45000000E+002   9.65586331E-001   7.73980973E-001   9.65487186E-001
   1.50000000E+002   9.68093508E-001   7.73992737E-001   9.68009336E-001
   1.55000000E+002   9.70363411E-001   7.74002323E-001   9.70291602E-001
   1.60000000E+002   9.72459383E-001   7.74010192E-001   9.72397833E-001
   1.65000000E+002   9.74357439E-001   7.74016695E-001   9.74304451E-001
   1.70000000E+002   9.76115938E-001   7.74022102E-001   9.76070130E-001
   1.75000000E+002   9.77738809E-001   7.74026624E-001   9.77699050E-001
   1.80000000E+002   9.79216359E-001   7.74030427E-001   9.79181720E-001
   1.85000000E+002   9.80581460E-001   7.74033640E-001   9.80551173E-001
   1.90000000E+002   9.81842030E-001   7.74036369E-001   9.81815457E-001
   1.95000000E+002   9.82996880E-001   7.74038696E-001   9.82973491E-001
   2.00000000E+002   9.84066208E-001   7.74040689E-001   9.84045556E-001
   2.05000000E+002   9.85065529E-001   7.74042403E-001   9.85047240E-001
   2.10000000E+002   9.85981461E-001   7.74043883E-001   9.85965220E-001
   2.15000000E+002   9.86838463E-001   7.74045164E-001   9.86824000E-001
   2.20000000E+002   9.87634261E-001   7.74046279E-001   9.87621349E-001
   2.25000000E+002   9.88357189E-001   7.74047250E-001   9.88345632E-001
   2.30000000E+002   9.89060682E-001   7.74048100E-001   9.89050314E-001
   2.35000000E+002   9.89690242E-001   7.74048846E-001   9.89680920E-001
   2.40000000E+002   9.90287328E-001   7.74049502E-001   9.90278927E-001
   2.45000000E+002   9.90843186E-001   7.74050081E-001   9.90835600E-001
