# ./jetvheto -in n3lo-fixed-order/H125-LHC13-R04-mb-0-mt-1725-xmur025-xmuf050-log.fxd -xQ 0.25 -out benchmarks-n3lo-smallR/H125-LHC13-R04-mb-0-mt-1725-xmur025-xmuf050-xQ025-N3LO+NNLLa.R0-1.5.res -scheme a -order 2 -ptmax 500.01 -small-r -fixed_order 3 -loop-mass t -R0 1.5
# process = H    
# collider = pp   
# rts =  13000.000
# M   =    125.000
# muR =     31.250
# muF =     62.500
# Q   =     31.250
# p   =      5.000
# include_c1_squared =   F
# loop_mass  = t   
# alphas(MZ) =    0.11800
# alphas(M) =    0.11264
# alphas(muR) =    0.14091
# Rjet =      0.400
# order = NNLL
# pdf name and set = PDF4LHC15_nnlo_mc.LHgrid,    0
# matching scheme = a
# total cross sections [nb] at LO, NLOdiff, NNLOdiff, N3LOdiff =     0.019855    0.024744    0.005009   -0.002663
#----------------------------------------------------------------------
# the lines that follow give the jet-veto efficiencies as a function of pt
#         pt            matched eff      resummed eff     fixed-order eff
   2.00000000E+001   4.65819990E-001   4.51466995E-001   4.64441433E-001
   2.50000000E+001   5.49222471E-001   5.12640290E-001   5.46982713E-001
   3.00000000E+001   6.23135856E-001   5.48801507E-001   6.21747969E-001
   3.50000000E+001   6.81601442E-001   5.68558008E-001   6.80660873E-001
   4.00000000E+001   7.25400114E-001   5.78961989E-001   7.24684346E-001
   4.50000000E+001   7.65164428E-001   5.84468220E-001   7.64688533E-001
   5.00000000E+001   7.96180376E-001   5.87470014E-001   7.95840800E-001
   5.50000000E+001   8.23409991E-001   5.89171629E-001   8.23173148E-001
   6.00000000E+001   8.45224677E-001   5.90175734E-001   8.45052906E-001
   6.50000000E+001   8.66439902E-001   5.90791036E-001   8.66318719E-001
   7.00000000E+001   8.81421567E-001   5.91181201E-001   8.81329841E-001
   7.50000000E+001   8.95188546E-001   5.91436276E-001   8.95119563E-001
   8.00000000E+001   9.07866668E-001   5.91607624E-001   9.07814578E-001
   8.50000000E+001   9.19171983E-001   5.91725539E-001   9.19132236E-001
   9.00000000E+001   9.29145665E-001   5.91808451E-001   9.29114976E-001
   9.50000000E+001   9.36548946E-001   5.91867885E-001   9.36524636E-001
   1.00000000E+002   9.43982695E-001   5.91911234E-001   9.43963449E-001
   1.05000000E+002   9.49393774E-001   5.91943351E-001   9.49378223E-001
   1.10000000E+002   9.54490873E-001   5.91967487E-001   9.54478252E-001
   1.15000000E+002   9.59549381E-001   5.91985860E-001   9.59539125E-001
   1.20000000E+002   9.64114007E-001   5.92000013E-001   9.64105612E-001
   1.25000000E+002   9.67631287E-001   5.92011035E-001   9.67624322E-001
   1.30000000E+002   9.70601175E-001   5.92019704E-001   9.70595359E-001
   1.35000000E+002   9.73822501E-001   5.92026586E-001   9.73817644E-001
   1.40000000E+002   9.76762316E-001   5.92032096E-001   9.76758237E-001
   1.45000000E+002   9.79228508E-001   5.92036542E-001   9.79225058E-001
   1.50000000E+002   9.80843196E-001   5.92040158E-001   9.80840244E-001
   1.55000000E+002   9.83176135E-001   5.92043117E-001   9.83173622E-001
   1.60000000E+002   9.85242520E-001   5.92045556E-001   9.85240369E-001
   1.65000000E+002   9.86020343E-001   5.92047578E-001   9.86018475E-001
   1.70000000E+002   9.87597712E-001   5.92049263E-001   9.87596097E-001
   1.75000000E+002   9.89071966E-001   5.92050675E-001   9.89070565E-001
   1.80000000E+002   9.90031389E-001   5.92051865E-001   9.90030165E-001
   1.85000000E+002   9.90905117E-001   5.92052872E-001   9.90904044E-001
   1.90000000E+002   9.91919102E-001   5.92053729E-001   9.91918160E-001
   1.95000000E+002   9.92869575E-001   5.92054460E-001   9.92868747E-001
   2.00000000E+002   9.93682997E-001   5.92055087E-001   9.93682266E-001
   2.05000000E+002   9.94218657E-001   5.92055627E-001   9.94218008E-001
   2.10000000E+002   9.94841288E-001   5.92056093E-001   9.94840712E-001
   2.15000000E+002   9.95209627E-001   5.92056497E-001   9.95209113E-001
   2.20000000E+002   9.96061550E-001   5.92056848E-001   9.96061092E-001
   2.25000000E+002   9.96292912E-001   5.92057155E-001   9.96292501E-001
   2.30000000E+002   9.96700175E-001   5.92057423E-001   9.96699807E-001
   2.35000000E+002   9.96933567E-001   5.92057658E-001   9.96933235E-001
   2.40000000E+002   9.97251204E-001   5.92057866E-001   9.97250905E-001
   2.45000000E+002   9.97727768E-001   5.92058049E-001   9.97727498E-001
