# ./jetvheto -in n3lo-fixed-order/H125-LHC13-R04-mb-0-mt-1725-xmur050-xmuf050-log.fxd -xQ 0.25 -out benchmarks-n3lo-smallR/H125-LHC13-R04-mb-0-mt-1725-xmur050-xmuf050-xQ025-NNLO+NNLLa.R0-1.5.res -scheme a -order 2 -ptmax 500.01 -small-r -fixed_order 2 -loop-mass t -R0 1.5
# process = H    
# collider = pp   
# rts =  13000.000
# M   =    125.000
# muR =     62.500
# muF =     62.500
# Q   =     31.250
# p   =      5.000
# include_c1_squared =   F
# loop_mass  = t   
# alphas(MZ) =    0.11800
# alphas(M) =    0.11264
# alphas(muR) =    0.12516
# Rjet =      0.400
# order = NNLL
# pdf name and set = PDF4LHC15_nnlo_mc.LHgrid,    0
# matching scheme = a
# total cross sections [nb] at LO, NLOdiff, NNLOdiff, N3LOdiff =     0.015885    0.020561    0.008998    0.001413
#----------------------------------------------------------------------
# the lines that follow give the jet-veto efficiencies as a function of pt
#         pt            matched eff      resummed eff     fixed-order eff
   2.00000000E+001   4.66373750E-001   4.96921280E-001   4.69057413E-001
   2.50000000E+001   5.52555410E-001   5.65963735E-001   5.55288671E-001
   3.00000000E+001   6.20297154E-001   6.06850462E-001   6.22338019E-001
   3.50000000E+001   6.74478337E-001   6.29212787E-001   6.75875821E-001
   4.00000000E+001   7.18455886E-001   6.40996412E-001   7.19396295E-001
   4.50000000E+001   7.54708399E-001   6.47235016E-001   7.55344248E-001
   5.00000000E+001   7.85248031E-001   6.50636744E-001   7.85683467E-001
   5.50000000E+001   8.10717563E-001   6.52565285E-001   8.11020538E-001
   6.00000000E+001   8.32543066E-001   6.53703370E-001   8.32757246E-001
   6.50000000E+001   8.51347967E-001   6.54400802E-001   8.51501964E-001
   7.00000000E+001   8.67622052E-001   6.54843056E-001   8.67734675E-001
   7.50000000E+001   8.81679549E-001   6.55132191E-001   8.81763053E-001
   8.00000000E+001   8.94024244E-001   6.55326419E-001   8.94087077E-001
   8.50000000E+001   9.04898706E-001   6.55460082E-001   9.04946611E-001
   9.00000000E+001   9.14480339E-001   6.55554066E-001   9.14517318E-001
   9.50000000E+001   9.22874232E-001   6.55621438E-001   9.22903074E-001
   1.00000000E+002   9.30417424E-001   6.55670577E-001   9.30440166E-001
   1.05000000E+002   9.37017153E-001   6.55706983E-001   9.37035250E-001
   1.10000000E+002   9.42922121E-001   6.55734342E-001   9.42936658E-001
   1.15000000E+002   9.48220788E-001   6.55755169E-001   9.48232561E-001
   1.20000000E+002   9.52988535E-001   6.55771213E-001   9.52998144E-001
   1.25000000E+002   9.57318559E-001   6.55783707E-001   9.57326460E-001
   1.30000000E+002   9.61142110E-001   6.55793534E-001   9.61148649E-001
   1.35000000E+002   9.64596331E-001   6.55801335E-001   9.64601780E-001
   1.40000000E+002   9.67746365E-001   6.55807580E-001   9.67750932E-001
   1.45000000E+002   9.70608789E-001   6.55812621E-001   9.70612637E-001
   1.50000000E+002   9.73229302E-001   6.55816719E-001   9.73232562E-001
   1.55000000E+002   9.75584220E-001   6.55820074E-001   9.75586996E-001
   1.60000000E+002   9.77724872E-001   6.55822838E-001   9.77727247E-001
   1.65000000E+002   9.79658850E-001   6.55825130E-001   9.79660891E-001
   1.70000000E+002   9.81437841E-001   6.55827040E-001   9.81439603E-001
   1.75000000E+002   9.83052144E-001   6.55828642E-001   9.83053670E-001
   1.80000000E+002   9.84506194E-001   6.55829990E-001   9.84507522E-001
   1.85000000E+002   9.85853118E-001   6.55831132E-001   9.85854277E-001
   1.90000000E+002   9.87084398E-001   6.55832103E-001   9.87085413E-001
   1.95000000E+002   9.88207422E-001   6.55832932E-001   9.88208314E-001
   2.00000000E+002   9.89235186E-001   6.55833642E-001   9.89235973E-001
   2.05000000E+002   9.90177063E-001   6.55834254E-001   9.90177759E-001
   2.10000000E+002   9.91020660E-001   6.55834782E-001   9.91021276E-001
   2.15000000E+002   9.91819092E-001   6.55835240E-001   9.91819641E-001
   2.20000000E+002   9.92548573E-001   6.55835639E-001   9.92549062E-001
   2.25000000E+002   9.93196316E-001   6.55835986E-001   9.93196753E-001
   2.30000000E+002   9.93832705E-001   6.55836290E-001   9.93833097E-001
   2.35000000E+002   9.94380010E-001   6.55836557E-001   9.94380362E-001
   2.40000000E+002   9.94897583E-001   6.55836792E-001   9.94897900E-001
   2.45000000E+002   9.95370920E-001   6.55837000E-001   9.95371206E-001
