# ./jetvheto -in n3lo-fixed-order/H125-LHC13-R04-mb-475-mt-1725-xmur050-xmuf050-log.fxd -xQ 0.125 -out benchmarks-n3lo-smallR/H125-LHC13-R04-mb-475-mt-1725-xmur050-xmuf050-xQ0125-N3LO+NNLLa.R0-2.0.res -scheme a -order 2 -ptmax 500.01 -fixed_order 3 -small-r -loop-mass t+b -R0 2.0
# process = H    
# collider = pp   
# rts =  13000.000
# M   =    125.000
# muR =     62.500
# muF =     62.500
# Q   =     15.625
# p   =      5.000
# include_c1_squared =   F
# loop_mass  = t+b 
# alphas(MZ) =    0.11800
# alphas(M) =    0.11264
# alphas(muR) =    0.12516
# Rjet =      0.400
# order = NNLL
# pdf name and set = PDF4LHC15_nnlo_mc.LHgrid,    0
# matching scheme = a
# total cross sections [nb] at LO, NLOdiff, NNLOdiff, N3LOdiff =     0.014147    0.020254    0.008998    0.001413
#----------------------------------------------------------------------
# the lines that follow give the jet-veto efficiencies as a function of pt
#         pt            matched eff      resummed eff     fixed-order eff
   2.00000000E+001   4.40629120E-001   4.21944538E-001   4.41074844E-001
   2.50000000E+001   5.26076066E-001   4.35702704E-001   5.26291803E-001
   3.00000000E+001   5.99440696E-001   4.40186297E-001   5.99588615E-001
   3.50000000E+001   6.58013923E-001   4.41866421E-001   6.58104134E-001
   4.00000000E+001   7.03647257E-001   4.42581297E-001   7.03699261E-001
   4.50000000E+001   7.43875198E-001   4.42918458E-001   7.43908515E-001
   5.00000000E+001   7.76246598E-001   4.43091137E-001   7.76267730E-001
   5.50000000E+001   8.04424222E-001   4.43185677E-001   8.04438345E-001
   6.00000000E+001   8.27658338E-001   4.43240354E-001   8.27667847E-001
   6.50000000E+001   8.49066727E-001   4.43273457E-001   8.49073502E-001
   7.00000000E+001   8.65762317E-001   4.43294292E-001   8.65767048E-001
   7.50000000E+001   8.80670677E-001   4.43307847E-001   8.80674091E-001
   8.00000000E+001   8.94135509E-001   4.43316924E-001   8.94138038E-001
   8.50000000E+001   9.06104928E-001   4.43323157E-001   9.06106835E-001
   9.00000000E+001   9.16609549E-001   4.43327533E-001   9.16611008E-001
   9.50000000E+001   9.25077362E-001   4.43330666E-001   9.25078477E-001
   1.00000000E+002   9.33100917E-001   4.43332950E-001   9.33101787E-001
   1.05000000E+002   9.39584925E-001   4.43334641E-001   9.39585604E-001
   1.10000000E+002   9.45494652E-001   4.43335912E-001   9.45495190E-001
   1.15000000E+002   9.51093673E-001   4.43336878E-001   9.51094105E-001
   1.20000000E+002   9.56107327E-001   4.43337623E-001   9.56107678E-001
   1.25000000E+002   9.60295992E-001   4.43338202E-001   9.60296277E-001
   1.30000000E+002   9.63937789E-001   4.43338658E-001   9.63938023E-001
   1.35000000E+002   9.67546698E-001   4.43339020E-001   9.67546891E-001
   1.40000000E+002   9.70830088E-001   4.43339310E-001   9.70830250E-001
   1.45000000E+002   9.73664509E-001   4.43339544E-001   9.73664645E-001
   1.50000000E+002   9.75887706E-001   4.43339734E-001   9.75887820E-001
   1.55000000E+002   9.78411432E-001   4.43339889E-001   9.78411529E-001
   1.60000000E+002   9.80668012E-001   4.43340017E-001   9.80668095E-001
   1.65000000E+002   9.82074074E-001   4.43340124E-001   9.82074144E-001
   1.70000000E+002   9.83849980E-001   4.43340212E-001   9.83850040E-001
   1.75000000E+002   9.85520582E-001   4.43340286E-001   9.85520635E-001
   1.80000000E+002   9.86797301E-001   4.43340349E-001   9.86797346E-001
   1.85000000E+002   9.87975353E-001   4.43340402E-001   9.87975392E-001
   1.90000000E+002   9.89172303E-001   4.43340447E-001   9.89172337E-001
   1.95000000E+002   9.90274782E-001   4.43340485E-001   9.90274812E-001
   2.00000000E+002   9.91246336E-001   4.43340518E-001   9.91246363E-001
   2.05000000E+002   9.92022394E-001   4.43340547E-001   9.92022417E-001
   2.10000000E+002   9.92795387E-001   4.43340571E-001   9.92795408E-001
   2.15000000E+002   9.93402903E-001   4.43340592E-001   9.93402921E-001
   2.20000000E+002   9.94259294E-001   4.43340611E-001   9.94259310E-001
   2.25000000E+002   9.94706365E-001   4.43340627E-001   9.94706379E-001
   2.30000000E+002   9.95249330E-001   4.43340641E-001   9.95249343E-001
   2.35000000E+002   9.95653989E-001   4.43340653E-001   9.95654001E-001
   2.40000000E+002   9.96087971E-001   4.43340664E-001   9.96087982E-001
   2.45000000E+002   9.96585693E-001   4.43340674E-001   9.96585702E-001
