# ./jetvheto -in n3lo-fixed-order/H125-LHC13-R04-mb-475-mt-1725-xmur050-xmuf100-log.fxd -xQ 0.5 -out benchmarks-n3lo-smallR/H125-LHC13-R04-mb-475-mt-1725-xmur050-xmuf100-xQ050-N3LO+NNLLb.R0-2.0.res -scheme b -order 2 -ptmax 500.01 -fixed_order 3 -small-r -loop-mass t+b -R0 2.0
# process = H    
# collider = pp   
# rts =  13000.000
# M   =    125.000
# muR =     62.500
# muF =    125.000
# Q   =     62.500
# p   =      5.000
# include_c1_squared =   F
# loop_mass  = t+b 
# alphas(MZ) =    0.11800
# alphas(M) =    0.11264
# alphas(muR) =    0.12516
# Rjet =      0.400
# order = NNLL
# pdf name and set = PDF4LHC15_nnlo_mc.LHgrid,    0
# matching scheme = b
# total cross sections [nb] at LO, NLOdiff, NNLOdiff, N3LOdiff =     0.015023    0.020252    0.008553    0.000949
#----------------------------------------------------------------------
# the lines that follow give the jet-veto efficiencies as a function of pt
#         pt            matched eff      resummed eff     fixed-order eff
   2.00000000E+001   4.52269033E-001   5.03806906E-001   4.22022001E-001
   2.50000000E+001   5.34653406E-001   5.72916989E-001   5.10305136E-001
   3.00000000E+001   6.07054828E-001   6.20996531E-001   5.88327259E-001
   3.50000000E+001   6.63067015E-001   6.54018099E-001   6.48206817E-001
   4.00000000E+001   7.08335464E-001   6.76207121E-001   6.96568548E-001
   4.50000000E+001   7.45040241E-001   6.90658835E-001   7.35802106E-001
   5.00000000E+001   7.76550207E-001   6.99708232E-001   7.69386078E-001
   5.50000000E+001   8.03817949E-001   7.05128381E-001   7.98313706E-001
   6.00000000E+001   8.26757050E-001   7.08232221E-001   8.22547640E-001
   6.50000000E+001   8.47830799E-001   7.09937464E-001   8.44619571E-001
   7.00000000E+001   8.65509074E-001   7.10840565E-001   8.63058779E-001
   7.50000000E+001   8.79795343E-001   7.11303078E-001   8.77921035E-001
   8.00000000E+001   8.92494909E-001   7.11531641E-001   8.91053486E-001
   8.50000000E+001   9.04242743E-001   7.11639107E-001   9.03126493E-001
   9.00000000E+001   9.14116218E-001   7.11685335E-001   9.13245267E-001
   9.50000000E+001   9.23387373E-001   7.11701393E-001   9.22702012E-001
   1.00000000E+002   9.30862163E-001   7.11703165E-001   9.30318877E-001
   1.05000000E+002   9.37637166E-001   7.11698653E-001   9.37202914E-001
   1.10000000E+002   9.43790380E-001   7.11691814E-001   9.43440479E-001
   1.15000000E+002   9.49300198E-001   7.11684537E-001   9.49016071E-001
   1.20000000E+002   9.53986963E-001   7.11677671E-001   9.53754638E-001
   1.25000000E+002   9.57986498E-001   7.11671545E-001   9.57795252E-001
   1.30000000E+002   9.62236254E-001   7.11666238E-001   9.62077662E-001
   1.35000000E+002   9.65914803E-001   7.11661714E-001   9.65782485E-001
   1.40000000E+002   9.68873918E-001   7.11657891E-001   9.68762947E-001
   1.45000000E+002   9.71781281E-001   7.11654674E-001   9.71687638E-001
   1.50000000E+002   9.74168427E-001   7.11651971E-001   9.74089037E-001
   1.55000000E+002   9.76986481E-001   7.11649700E-001   9.76918783E-001
   1.60000000E+002   9.78543250E-001   7.11647788E-001   9.78485312E-001
   1.65000000E+002   9.80455143E-001   7.11646176E-001   9.80405311E-001
   1.70000000E+002   9.82069726E-001   7.11644813E-001   9.82026686E-001
   1.75000000E+002   9.83726597E-001   7.11643658E-001   9.83689270E-001
   1.80000000E+002   9.85227363E-001   7.11642674E-001   9.85194866E-001
   1.85000000E+002   9.86576740E-001   7.11641835E-001   9.86548347E-001
   1.90000000E+002   9.87326915E-001   7.11641117E-001   9.87302036E-001
   1.95000000E+002   9.88578155E-001   7.11640500E-001   9.88556267E-001
   2.00000000E+002   9.89599063E-001   7.11639969E-001   9.89579750E-001
   2.05000000E+002   9.90425049E-001   7.11639509E-001   9.90407959E-001
   2.10000000E+002   9.91166602E-001   7.11639111E-001   9.91151437E-001
   2.15000000E+002   9.92088701E-001   7.11638765E-001   9.92075203E-001
   2.20000000E+002   9.92651342E-001   7.11638462E-001   9.92639301E-001
   2.25000000E+002   9.93309930E-001   7.11638198E-001   9.93299159E-001
   2.30000000E+002   9.93924203E-001   7.11637967E-001   9.93914547E-001
   2.35000000E+002   9.94485259E-001   7.11637763E-001   9.94476580E-001
   2.40000000E+002   9.94784849E-001   7.11637583E-001   9.94777034E-001
   2.45000000E+002   9.95324425E-001   7.11637425E-001   9.95317372E-001
