# ./jetvheto -in n3lo-fixed-order/H125-LHC13-R04-heft-xmur100-xmuf050-log.fxd -xQ 0.50 -out benchmarks-n3lo-smallR/H125-LHC13-R04-heft-xmur100-xmuf050-xQ050-N3LO+NNLLa.res -scheme a -order 2 -ptmax 500.01 -fixed_order 3
# process = H    
# collider = pp   
# rts =  13000.000
# M   =    125.000
# muR =    125.000
# muF =     62.500
# Q   =     62.500
# p   =      5.000
# include_c1_squared =   F
# loop_mass  = none
# alphas(MZ) =    0.11800
# alphas(M) =    0.11264
# alphas(muR) =    0.11264
# Rjet =      0.400
# order = NNLL
# pdf name and set = PDF4LHC15_nnlo_mc.LHgrid,    0
# matching scheme = a
# total cross sections [nb] at LO, NLOdiff, NNLOdiff, N3LOdiff =     0.012193    0.016617    0.010424    0.004163
#----------------------------------------------------------------------
# the lines that follow give the jet-veto efficiencies as a function of pt
#         pt            matched eff      resummed eff     fixed-order eff
   2.00000000E+001   4.51346473E-001   4.97573859E-001   4.64057337E-001
   2.50000000E+001   5.39938967E-001   5.82033645E-001   5.48130620E-001
   3.00000000E+001   6.12673165E-001   6.42719635E-001   6.17489748E-001
   3.50000000E+001   6.70403499E-001   6.85789288E-001   6.72433495E-001
   4.00000000E+001   7.15840394E-001   7.15843526E-001   7.15867146E-001
   4.50000000E+001   7.54166274E-001   7.36331666E-001   7.53121198E-001
   5.00000000E+001   7.85038022E-001   7.49922001E-001   7.83472673E-001
   5.50000000E+001   8.11313147E-001   7.58696630E-001   8.09640063E-001
   6.00000000E+001   8.32941562E-001   7.64240997E-001   8.31369636E-001
   6.50000000E+001   8.52329596E-001   7.67700202E-001   8.50966316E-001
   7.00000000E+001   8.67948157E-001   7.69855485E-001   8.66807535E-001
   7.50000000E+001   8.81714887E-001   7.71210956E-001   8.80786805E-001
   8.00000000E+001   8.94016045E-001   7.72078502E-001   8.93271458E-001
   8.50000000E+001   9.04913287E-001   7.72646312E-001   9.04319481E-001
   9.00000000E+001   9.14564257E-001   7.73027278E-001   9.14091092E-001
   9.50000000E+001   9.22583232E-001   7.73289305E-001   9.22205027E-001
   1.00000000E+002   9.30008512E-001   7.73473809E-001   9.29705154E-001
   1.05000000E+002   9.36201913E-001   7.73606561E-001   9.35957162E-001
   1.10000000E+002   9.41862763E-001   7.73703953E-001   9.41664178E-001
   1.15000000E+002   9.47084151E-001   7.73776661E-001   9.46922105E-001
   1.20000000E+002   9.51799872E-001   7.73831790E-001   9.51666817E-001
   1.25000000E+002   9.55830177E-001   7.73874173E-001   9.55720209E-001
   1.30000000E+002   9.59393343E-001   7.73907166E-001   9.59301923E-001
   1.35000000E+002   9.62828637E-001   7.73933137E-001   9.62752220E-001
   1.40000000E+002   9.65943053E-001   7.73953788E-001   9.65878824E-001
   1.45000000E+002   9.68663800E-001   7.73970360E-001   9.68609526E-001
   1.50000000E+002   9.70938680E-001   7.73983772E-001   9.70892567E-001
   1.55000000E+002   9.73303746E-001   7.73994710E-001   9.73264404E-001
   1.60000000E+002   9.75460486E-001   7.74003693E-001   9.75426765E-001
   1.65000000E+002   9.77021520E-001   7.74011121E-001   9.76992474E-001
   1.70000000E+002   9.78773189E-001   7.74017300E-001   9.78748079E-001
   1.75000000E+002   9.80404252E-001   7.74022469E-001   9.80382459E-001
   1.80000000E+002   9.81748493E-001   7.74026816E-001   9.81729506E-001
   1.85000000E+002   9.82983374E-001   7.74030491E-001   9.82966773E-001
   1.90000000E+002   9.84199704E-001   7.74033612E-001   9.84185141E-001
   1.95000000E+002   9.85317380E-001   7.74036275E-001   9.85304565E-001
   2.00000000E+002   9.86329636E-001   7.74038556E-001   9.86318323E-001
   2.05000000E+002   9.87202181E-001   7.74040517E-001   9.87192163E-001
   2.10000000E+002   9.88048025E-001   7.74042211E-001   9.88039131E-001
   2.15000000E+002   9.88763222E-001   7.74043678E-001   9.88755303E-001
   2.20000000E+002   9.89609389E-001   7.74044954E-001   9.89602322E-001
   2.25000000E+002   9.90183007E-001   7.74046066E-001   9.90176683E-001
   2.30000000E+002   9.90812648E-001   7.74047039E-001   9.90806975E-001
   2.35000000E+002   9.91328939E-001   7.74047893E-001   9.91323839E-001
   2.40000000E+002   9.91852652E-001   7.74048644E-001   9.91848058E-001
   2.45000000E+002   9.92406254E-001   7.74049307E-001   9.92402107E-001
