# ./jetvheto -in n3lo-fixed-order/H125-LHC13-R04-mb-0-mt-1725-xmur050-xmuf050-log.fxd -xQ 0.75 -out benchmarks-n3lo-smallR/H125-LHC13-R04-mb-0-mt-1725-xmur050-xmuf050-xQ075-N3LO+NNLLa.res -scheme a -order 2 -ptmax 500.01 -fixed_order 3 -loop-mass t
# process = H    
# collider = pp   
# rts =  13000.000
# M   =    125.000
# muR =     62.500
# muF =     62.500
# Q   =     93.750
# p   =      5.000
# include_c1_squared =   F
# loop_mass  = t   
# alphas(MZ) =    0.11800
# alphas(M) =    0.11264
# alphas(muR) =    0.12516
# Rjet =      0.400
# order = NNLL
# pdf name and set = PDF4LHC15_nnlo_mc.LHgrid,    0
# matching scheme = a
# total cross sections [nb] at LO, NLOdiff, NNLOdiff, N3LOdiff =     0.015885    0.020561    0.008998    0.001413
#----------------------------------------------------------------------
# the lines that follow give the jet-veto efficiencies as a function of pt
#         pt            matched eff      resummed eff     fixed-order eff
   2.00000000E+001   4.75786060E-001   5.39455074E-001   4.58478332E-001
   2.50000000E+001   5.62565174E-001   6.21596679E-001   5.43713081E-001
   3.00000000E+001   6.34646032E-001   6.79226902E-001   6.16066731E-001
   3.50000000E+001   6.91595599E-001   7.19345410E-001   6.73487735E-001
   4.00000000E+001   7.35373366E-001   7.46824004E-001   7.18067162E-001
   4.50000000E+001   7.73053501E-001   7.65095547E-001   7.56928051E-001
   5.00000000E+001   8.03049725E-001   7.76620346E-001   7.88284226E-001
   5.50000000E+001   8.28536380E-001   7.83212769E-001   8.15210520E-001
   6.00000000E+001   8.49274179E-001   7.86231003E-001   8.37433297E-001
   6.50000000E+001   8.68366096E-001   7.86723587E-001   8.57921417E-001
   7.00000000E+001   8.82825304E-001   7.85511576E-001   8.73778810E-001
   7.50000000E+001   8.95692027E-001   7.83236201E-001   8.87924776E-001
   8.00000000E+001   9.07294461E-001   7.80389537E-001   9.00670973E-001
   8.50000000E+001   9.17580179E-001   7.77333376E-001   9.11969998E-001
   9.00000000E+001   9.26655839E-001   7.74317526E-001   9.21929710E-001
   9.50000000E+001   9.33854957E-001   7.71497936E-001   9.29907319E-001
   1.00000000E+002   9.40804323E-001   7.68959284E-001   9.37506036E-001
   1.05000000E+002   9.46286067E-001   7.66734344E-001   9.43543485E-001
   1.10000000E+002   9.51369505E-001   7.64821667E-001   9.49085884E-001
   1.15000000E+002   9.56229845E-001   7.63199678E-001   9.54323006E-001
   1.20000000E+002   9.60635340E-001   7.61836892E-001   9.59039767E-001
   1.25000000E+002   9.64308868E-001   7.60698579E-001   9.62972878E-001
   1.30000000E+002   9.67488057E-001   7.59750979E-001   9.66366470E-001
   1.35000000E+002   9.70677706E-001   7.58963281E-001   9.69730923E-001
   1.40000000E+002   9.73599159E-001   7.58308467E-001   9.72797037E-001
   1.45000000E+002   9.76147217E-001   7.57763499E-001   9.75465608E-001
   1.50000000E+002   9.78132602E-001   7.57309071E-001   9.77552300E-001
   1.55000000E+002   9.80411484E-001   7.56929190E-001   9.79914033E-001
   1.60000000E+002   9.82457288E-001   7.56610704E-001   9.82029350E-001
   1.65000000E+002   9.83703168E-001   7.56342844E-001   9.83335000E-001
   1.70000000E+002   9.85332233E-001   7.56116809E-001   9.85013351E-001
   1.75000000E+002   9.86837559E-001   7.55925415E-001   9.86560338E-001
   1.80000000E+002   9.87988062E-001   7.55762789E-001   9.87746562E-001
   1.85000000E+002   9.89047705E-001   7.55624130E-001   9.88836616E-001
   1.90000000E+002   9.90137414E-001   7.55505500E-001   9.89952168E-001
   1.95000000E+002   9.91145144E-001   7.55403662E-001   9.90982071E-001
   2.00000000E+002   9.92036525E-001   7.55315953E-001   9.91892575E-001
   2.05000000E+002   9.92738333E-001   7.55240167E-001   9.92610981E-001
   2.10000000E+002   9.93444691E-001   7.55174479E-001   9.93331661E-001
   2.15000000E+002   9.93992569E-001   7.55117371E-001   9.93892050E-001
   2.20000000E+002   9.94778853E-001   7.55067576E-001   9.94689076E-001
   2.25000000E+002   9.95183665E-001   7.55024033E-001   9.95103439E-001
   2.30000000E+002   9.95685016E-001   7.54985852E-001   9.95613102E-001
   2.35000000E+002   9.96048937E-001   7.54952284E-001   9.95984357E-001
   2.40000000E+002   9.96447154E-001   7.54922696E-001   9.96389013E-001
   2.45000000E+002   9.96914520E-001   7.54896550E-001   9.96862033E-001
