# ./jetvheto -in n3lo-fixed-order/H125-LHC13-R04-mb-475-mt-1725-xmur100-xmuf100-log.fxd -xQ 0.25 -out benchmarks-n3lo-smallR/H125-LHC13-R04-mb-475-mt-1725-xmur100-xmuf100-xQ025-N3LO+NNLLb.R0-2.0.res -scheme b -order 2 -ptmax 500.01 -fixed_order 3 -small-r -loop-mass t+b -R0 2.0
# process = H    
# collider = pp   
# rts =  13000.000
# M   =    125.000
# muR =    125.000
# muF =    125.000
# Q   =     31.250
# p   =      5.000
# include_c1_squared =   F
# loop_mass  = t+b 
# alphas(MZ) =    0.11800
# alphas(M) =    0.11264
# alphas(muR) =    0.11264
# Rjet =      0.400
# order = NNLL
# pdf name and set = PDF4LHC15_nnlo_mc.LHgrid,    0
# matching scheme = b
# total cross sections [nb] at LO, NLOdiff, NNLOdiff, N3LOdiff =     0.012292    0.016994    0.010146    0.003834
#----------------------------------------------------------------------
# the lines that follow give the jet-veto efficiencies as a function of pt
#         pt            matched eff      resummed eff     fixed-order eff
   2.00000000E+001   4.16314064E-001   5.23130956E-001   3.97974970E-001
   2.50000000E+001   5.01134933E-001   5.92261728E-001   4.91794485E-001
   3.00000000E+001   5.75195689E-001   6.32907097E-001   5.70830727E-001
   3.50000000E+001   6.34502489E-001   6.55022622E-001   6.32372721E-001
   4.00000000E+001   6.83274653E-001   6.66638687E-001   6.82195687E-001
   4.50000000E+001   7.23480397E-001   6.72777284E-001   7.22903550E-001
   5.00000000E+001   7.57809594E-001   6.76120947E-001   7.57489684E-001
   5.50000000E+001   7.87246691E-001   6.78015417E-001   7.87062825E-001
   6.00000000E+001   8.12175475E-001   6.79132997E-001   8.12064423E-001
   6.50000000E+001   8.34457983E-001   6.79817714E-001   8.34389891E-001
   7.00000000E+001   8.53309843E-001   6.80251848E-001   8.53266196E-001
   7.50000000E+001   8.68945233E-001   6.80535648E-001   8.68915734E-001
   8.00000000E+001   8.82745260E-001   6.80726282E-001   8.82724838E-001
   8.50000000E+001   8.95188007E-001   6.80857466E-001   8.95173737E-001
   9.00000000E+001   9.05861454E-001   6.80949705E-001   9.05851124E-001
   9.50000000E+001   9.15611840E-001   6.81015824E-001   9.15604325E-001
   1.00000000E+002   9.23760994E-001   6.81064049E-001   9.23755321E-001
   1.05000000E+002   9.31099655E-001   6.81099778E-001   9.31095317E-001
   1.10000000E+002   9.37679399E-001   6.81126627E-001   9.37676052E-001
   1.15000000E+002   9.43591785E-001   6.81147066E-001   9.43589165E-001
   1.20000000E+002   9.48693621E-001   6.81162811E-001   9.48691534E-001
   1.25000000E+002   9.53167023E-001   6.81175072E-001   9.53165332E-001
   1.30000000E+002   9.57612139E-001   6.81184716E-001   9.57610782E-001
   1.35000000E+002   9.61528764E-001   6.81192372E-001   9.61527659E-001
   1.40000000E+002   9.64812085E-001   6.81198501E-001   9.64811168E-001
   1.45000000E+002   9.67961230E-001   6.81203448E-001   9.67960469E-001
   1.50000000E+002   9.70630085E-001   6.81207469E-001   9.70629444E-001
   1.55000000E+002   9.73497154E-001   6.81210762E-001   9.73496621E-001
   1.60000000E+002   9.75439826E-001   6.81213475E-001   9.75439366E-001
   1.65000000E+002   9.77533308E-001   6.81215723E-001   9.77532916E-001
   1.70000000E+002   9.79362442E-001   6.81217598E-001   9.79362104E-001
   1.75000000E+002   9.81142826E-001   6.81219170E-001   9.81142536E-001
   1.80000000E+002   9.82765852E-001   6.81220493E-001   9.82765601E-001
   1.85000000E+002   9.84232674E-001   6.81221614E-001   9.84232456E-001
   1.90000000E+002   9.85260137E-001   6.81222566E-001   9.85259944E-001
   1.95000000E+002   9.86580704E-001   6.81223380E-001   9.86580536E-001
   2.00000000E+002   9.87701679E-001   6.81224077E-001   9.87701531E-001
   2.05000000E+002   9.88662970E-001   6.81224677E-001   9.88662839E-001
   2.10000000E+002   9.89531361E-001   6.81225196E-001   9.89531244E-001
   2.15000000E+002   9.90479833E-001   6.81225645E-001   9.90479731E-001
   2.20000000E+002   9.91173582E-001   6.81226036E-001   9.91173490E-001
   2.25000000E+002   9.91902119E-001   6.81226377E-001   9.91902037E-001
   2.30000000E+002   9.92578382E-001   6.81226676E-001   9.92578309E-001
   2.35000000E+002   9.93202553E-001   6.81226938E-001   9.93202487E-001
   2.40000000E+002   9.93628200E-001   6.81227168E-001   9.93628140E-001
   2.45000000E+002   9.94199705E-001   6.81227372E-001   9.94199651E-001
