# ./jetvheto -in n3lo-fixed-order/H125-LHC13-R04-mb-0-mt-1725-xmur050-xmuf050-log.fxd -xQ 0.5 -out benchmarks-n3lo-smallR/H125-LHC13-R04-mb-0-mt-1725-xmur050-xmuf050-xQ050-N3LO+NNLLa.res -scheme a -order 2 -ptmax 500.01 -fixed_order 3 -loop-mass t
# process = H    
# collider = pp   
# rts =  13000.000
# M   =    125.000
# muR =     62.500
# muF =     62.500
# Q   =     62.500
# p   =      5.000
# include_c1_squared =   F
# loop_mass  = t   
# alphas(MZ) =    0.11800
# alphas(M) =    0.11264
# alphas(muR) =    0.12516
# Rjet =      0.400
# order = NNLL
# pdf name and set = PDF4LHC15_nnlo_mc.LHgrid,    0
# matching scheme = a
# total cross sections [nb] at LO, NLOdiff, NNLOdiff, N3LOdiff =     0.015885    0.020561    0.008998    0.001413
#----------------------------------------------------------------------
# the lines that follow give the jet-veto efficiencies as a function of pt
#         pt            matched eff      resummed eff     fixed-order eff
   2.00000000E+001   4.62992154E-001   4.97342320E-001   4.58478332E-001
   2.50000000E+001   5.49835158E-001   5.76822072E-001   5.43713081E-001
   3.00000000E+001   6.22098932E-001   6.33037089E-001   6.16066731E-001
   3.50000000E+001   6.79387148E-001   6.72308059E-001   6.73487735E-001
   4.00000000E+001   7.23691806E-001   6.99242692E-001   7.18067162E-001
   4.50000000E+001   7.61878806E-001   7.17239140E-001   7.56928051E-001
   5.00000000E+001   7.92516801E-001   7.28890525E-001   7.88284226E-001
   5.50000000E+001   8.18689677E-001   7.36192906E-001   8.15210520E-001
   6.00000000E+001   8.40233353E-001   7.40643015E-001   8.37433297E-001
   6.50000000E+001   8.60129797E-001   7.43302133E-001   8.57921417E-001
   7.00000000E+001   8.75511469E-001   7.44878387E-001   8.73778810E-001
   7.50000000E+001   8.89275456E-001   7.45816549E-001   8.87924776E-001
   8.00000000E+001   9.01723745E-001   7.46383027E-001   9.00670973E-001
   8.50000000E+001   9.12793003E-001   7.46732555E-001   9.11969998E-001
   9.00000000E+001   9.22576401E-001   7.46954047E-001   9.21929710E-001
   9.50000000E+001   9.30418668E-001   7.47098482E-001   9.29907319E-001
   1.00000000E+002   9.37913142E-001   7.47195396E-001   9.37506036E-001
   1.05000000E+002   9.43869921E-001   7.47262220E-001   9.43543485E-001
   1.10000000E+002   9.49349546E-001   7.47309474E-001   9.49085884E-001
   1.15000000E+002   9.54537439E-001   7.47343661E-001   9.54323006E-001
   1.20000000E+002   9.59215376E-001   7.47368905E-001   9.59039767E-001
   1.25000000E+002   9.63117681E-001   7.47387889E-001   9.62972878E-001
   1.30000000E+002   9.66486600E-001   7.47402395E-001   9.66366470E-001
   1.35000000E+002   9.69831193E-001   7.47413641E-001   9.69730923E-001
   1.40000000E+002   9.72881208E-001   7.47422470E-001   9.72797037E-001
   1.45000000E+002   9.75536646E-001   7.47429480E-001   9.75465608E-001
   1.50000000E+002   9.77612579E-001   7.47435103E-001   9.77552300E-001
   1.55000000E+002   9.79965420E-001   7.47439656E-001   9.79914033E-001
   1.60000000E+002   9.82073361E-001   7.47443372E-001   9.82029350E-001
   1.65000000E+002   9.83372865E-001   7.47446428E-001   9.83335000E-001
   1.70000000E+002   9.85046061E-001   7.47448960E-001   9.85013351E-001
   1.75000000E+002   9.86588710E-001   7.47451070E-001   9.86560338E-001
   1.80000000E+002   9.87771261E-001   7.47452839E-001   9.87746562E-001
   1.85000000E+002   9.88858196E-001   7.47454331E-001   9.88836616E-001
   1.90000000E+002   9.89971087E-001   7.47455594E-001   9.89952168E-001
   1.95000000E+002   9.90998711E-001   7.47456671E-001   9.90982071E-001
   2.00000000E+002   9.91907256E-001   7.47457591E-001   9.91892575E-001
   2.05000000E+002   9.92623972E-001   7.47458381E-001   9.92610981E-001
   2.10000000E+002   9.93343189E-001   7.47459063E-001   9.93331661E-001
   2.15000000E+002   9.93902308E-001   7.47459652E-001   9.93892050E-001
   2.20000000E+002   9.94698227E-001   7.47460165E-001   9.94689076E-001
   2.25000000E+002   9.95111623E-001   7.47460611E-001   9.95103439E-001
   2.30000000E+002   9.95620440E-001   7.47461001E-001   9.95613102E-001
   2.35000000E+002   9.95990950E-001   7.47461343E-001   9.95984357E-001
   2.40000000E+002   9.96394950E-001   7.47461644E-001   9.96389013E-001
   2.45000000E+002   9.96867390E-001   7.47461909E-001   9.96862033E-001
