# ./jetvheto -in n3lo-fixed-order/H125-LHC13-R04-mb-475-mt-1725-xmur050-xmuf100-log.fxd -xQ 0.25 -out benchmarks-n3lo-smallR/H125-LHC13-R04-mb-475-mt-1725-xmur050-xmuf100-xQ025-NNLO+NNLLb.R0-0.5.res -scheme b -order 2 -ptmax 500.01 -fixed_order 2 -small-r -loop-mass t+b -R0 0.5
# process = H    
# collider = pp   
# rts =  13000.000
# M   =    125.000
# muR =     62.500
# muF =    125.000
# Q   =     31.250
# p   =      5.000
# include_c1_squared =   F
# loop_mass  = t+b 
# alphas(MZ) =    0.11800
# alphas(M) =    0.11264
# alphas(muR) =    0.12516
# Rjet =      0.400
# order = NNLL
# pdf name and set = PDF4LHC15_nnlo_mc.LHgrid,    0
# matching scheme = b
# total cross sections [nb] at LO, NLOdiff, NNLOdiff, N3LOdiff =     0.015023    0.020252    0.008553    0.000949
#----------------------------------------------------------------------
# the lines that follow give the jet-veto efficiencies as a function of pt
#         pt            matched eff      resummed eff     fixed-order eff
   2.00000000E+001   3.71308536E-001   4.80181286E-001   3.20313286E-001
   2.50000000E+001   4.55991907E-001   5.45916302E-001   4.29278925E-001
   3.00000000E+001   5.28074575E-001   5.84585777E-001   5.14383374E-001
   3.50000000E+001   5.89624283E-001   6.05629805E-001   5.82581444E-001
   4.00000000E+001   6.41881446E-001   6.16683783E-001   6.38164221E-001
   4.50000000E+001   6.86195599E-001   6.22525512E-001   6.84150076E-001
   5.00000000E+001   7.23891065E-001   6.25707522E-001   7.22713547E-001
   5.50000000E+001   7.55950120E-001   6.27510417E-001   7.55241710E-001
   6.00000000E+001   7.83635259E-001   6.28573980E-001   7.83192109E-001
   6.50000000E+001   8.07548162E-001   6.29225604E-001   8.07260822E-001
   7.00000000E+001   8.28223505E-001   6.29638756E-001   8.28031068E-001
   7.50000000E+001   8.46228113E-001   6.29908841E-001   8.46095587E-001
   8.00000000E+001   8.62072162E-001   6.30090263E-001   8.61978585E-001
   8.50000000E+001   8.75866812E-001   6.30215107E-001   8.75799202E-001
   9.00000000E+001   8.88173922E-001   6.30302888E-001   8.88124135E-001
   9.50000000E+001   8.98972314E-001   6.30365812E-001   8.98934980E-001
   1.00000000E+002   9.08556885E-001   6.30411707E-001   9.08528436E-001
   1.05000000E+002   9.17125322E-001   6.30445709E-001   9.17103329E-001
   1.10000000E+002   9.24668477E-001   6.30471260E-001   9.24651250E-001
   1.15000000E+002   9.31498940E-001   6.30490712E-001   9.31485289E-001
   1.20000000E+002   9.37529380E-001   6.30505696E-001   9.37518444E-001
   1.25000000E+002   9.43034356E-001   6.30517364E-001   9.43025509E-001
   1.30000000E+002   9.47967384E-001   6.30526542E-001   9.47960161E-001
   1.35000000E+002   9.52448838E-001   6.30533828E-001   9.52442895E-001
   1.40000000E+002   9.56434573E-001   6.30539661E-001   9.56429641E-001
   1.45000000E+002   9.60139293E-001   6.30544369E-001   9.60135174E-001
   1.50000000E+002   9.63411992E-001   6.30548196E-001   9.63408528E-001
   1.55000000E+002   9.66434399E-001   6.30551329E-001   9.66431468E-001
   1.60000000E+002   9.69177407E-001   6.30553911E-001   9.69174914E-001
   1.65000000E+002   9.71666429E-001   6.30556051E-001   9.71664297E-001
   1.70000000E+002   9.73954728E-001   6.30557835E-001   9.73952895E-001
   1.75000000E+002   9.76007963E-001   6.30559331E-001   9.76006381E-001
   1.80000000E+002   9.77902374E-001   6.30560590E-001   9.77901002E-001
   1.85000000E+002   9.79621842E-001   6.30561657E-001   9.79620647E-001
   1.90000000E+002   9.81206965E-001   6.30562563E-001   9.81205921E-001
   1.95000000E+002   9.82688631E-001   6.30563337E-001   9.82687714E-001
   2.00000000E+002   9.84021854E-001   6.30564001E-001   9.84021048E-001
   2.05000000E+002   9.85263297E-001   6.30564572E-001   9.85262585E-001
   2.10000000E+002   9.86390235E-001   6.30565066E-001   9.86389604E-001
   2.15000000E+002   9.87400694E-001   6.30565494E-001   9.87400133E-001
   2.20000000E+002   9.88359290E-001   6.30565866E-001   9.88358791E-001
   2.25000000E+002   9.89232683E-001   6.30566190E-001   9.89232237E-001
   2.30000000E+002   9.90037528E-001   6.30566474E-001   9.90037128E-001
   2.35000000E+002   9.90794801E-001   6.30566723E-001   9.90794442E-001
   2.40000000E+002   9.91467707E-001   6.30566943E-001   9.91467385E-001
   2.45000000E+002   9.92108075E-001   6.30567136E-001   9.92107784E-001
