# ./jetvheto -in n3lo-fixed-order/H125-LHC13-R04-mb-0-mt-1725-xmur050-xmuf050-log.fxd -xQ 1.0 -out benchmarks-n3lo-smallR/H125-LHC13-R04-mb-0-mt-1725-xmur050-xmuf050-xQ100-N3LO+NNLLb.R0-2.0.res -scheme b -order 2 -ptmax 500.01 -small-r -fixed_order 3 -loop-mass t -R0 2.0
# process = H    
# collider = pp   
# rts =  13000.000
# M   =    125.000
# muR =     62.500
# muF =     62.500
# Q   =    125.000
# p   =      5.000
# include_c1_squared =   F
# loop_mass  = t   
# alphas(MZ) =    0.11800
# alphas(M) =    0.11264
# alphas(muR) =    0.12516
# Rjet =      0.400
# order = NNLL
# pdf name and set = PDF4LHC15_nnlo_mc.LHgrid,    0
# matching scheme = b
# total cross sections [nb] at LO, NLOdiff, NNLOdiff, N3LOdiff =     0.015885    0.020561    0.008998    0.001413
#----------------------------------------------------------------------
# the lines that follow give the jet-veto efficiencies as a function of pt
#         pt            matched eff      resummed eff     fixed-order eff
   2.00000000E+001   5.41835119E-001   6.73953193E-001   4.41643521E-001
   2.50000000E+001   6.14577198E-001   7.42257172E-001   5.29528045E-001
   3.00000000E+001   6.76543381E-001   7.88142553E-001   6.04131024E-001
   3.50000000E+001   7.25501749E-001   8.18416805E-001   6.63337130E-001
   4.00000000E+001   7.62763473E-001   8.37689663E-001   7.09302441E-001
   4.50000000E+001   7.95690357E-001   8.49055661E-001   7.49371437E-001
   5.00000000E+001   8.21806094E-001   8.54669196E-001   7.81702411E-001
   5.50000000E+001   8.44328780E-001   8.56079771E-001   8.09465789E-001
   6.00000000E+001   8.62622218E-001   8.54415822E-001   8.32379427E-001
   6.50000000E+001   8.79947812E-001   8.50524841E-001   8.53504482E-001
   7.00000000E+001   8.92759057E-001   8.45059083E-001   8.69854849E-001
   7.50000000E+001   9.04329930E-001   8.38522050E-001   8.84440584E-001
   8.00000000E+001   9.14895084E-001   8.31312252E-001   8.97583035E-001
   8.50000000E+001   9.24304754E-001   8.23751007E-001   9.09233323E-001
   9.00000000E+001   9.32615138E-001   8.16097569E-001   9.19502663E-001
   9.50000000E+001   9.39053623E-001   8.08558190E-001   9.27728280E-001
   1.00000000E+002   9.45373256E-001   8.01294832E-001   9.35563225E-001
   1.05000000E+002   9.50230994E-001   7.94428170E-001   9.41788367E-001
   1.10000000E+002   9.54774689E-001   7.88041717E-001   9.47503067E-001
   1.15000000E+002   9.59178863E-001   7.82186570E-001   9.52903001E-001
   1.20000000E+002   9.63182179E-001   7.76884479E-001   9.57766396E-001
   1.25000000E+002   9.66480813E-001   7.72134146E-001   9.61821780E-001
   1.30000000E+002   9.69327734E-001   7.67916664E-001   9.65320871E-001
   1.35000000E+002   9.72249627E-001   7.64200478E-001   9.68789919E-001
   1.40000000E+002   9.74941764E-001   7.60946032E-001   9.71951352E-001
   1.45000000E+002   9.77288063E-001   7.58109658E-001   9.74702884E-001
   1.50000000E+002   9.79085547E-001   7.55646610E-001   9.76854447E-001
   1.55000000E+002   9.81228636E-001   7.53513261E-001   9.79289601E-001
   1.60000000E+002   9.83158668E-001   7.51668547E-001   9.81470679E-001
   1.65000000E+002   9.84280522E-001   7.50074775E-001   9.82816919E-001
   1.70000000E+002   9.85826038E-001   7.48698115E-001   9.84547446E-001
   1.75000000E+002   9.87262473E-001   7.47508632E-001   9.86142527E-001
   1.80000000E+002   9.88346812E-001   7.46480082E-001   9.87365627E-001
   1.85000000E+002   9.89351355E-001   7.45589681E-001   9.88489569E-001
   1.90000000E+002   9.90399619E-001   7.44817779E-001   9.89639801E-001
   1.95000000E+002   9.91373347E-001   7.44147508E-001   9.90701722E-001
   2.00000000E+002   9.92235447E-001   7.43564432E-001   9.91640532E-001
   2.05000000E+002   9.92908907E-001   7.43056223E-001   9.92381271E-001
   2.10000000E+002   9.93593828E-001   7.42612371E-001   9.93124356E-001
   2.15000000E+002   9.94120362E-001   7.42223917E-001   9.93702166E-001
   2.20000000E+002   9.94898470E-001   7.41883225E-001   9.94523970E-001
   2.25000000E+002   9.95286228E-001   7.41583781E-001   9.94951215E-001
   2.30000000E+002   9.95777419E-001   7.41320027E-001   9.95476723E-001
   2.35000000E+002   9.96129783E-001   7.41087216E-001   9.95859519E-001
   2.40000000E+002   9.96520309E-001   7.40881282E-001   9.96276754E-001
   2.45000000E+002   9.96984639E-001   7.40698742E-001   9.96764480E-001
