# ./jetvheto -in n3lo-fixed-order/H125-LHC13-R04-mb-0-mt-1725-xmur200-xmuf100-log.fxd -xQ 0.25 -out benchmarks-n3lo-smallR/H125-LHC13-R04-mb-0-mt-1725-xmur200-xmuf100-xQ025-NNLO+NNLLb.R0-1.0.res -scheme b -order 2 -ptmax 500.01 -small-r -fixed_order 2 -loop-mass t -R0 1.0
# process = H    
# collider = pp   
# rts =  13000.000
# M   =    125.000
# muR =    250.000
# muF =    125.000
# Q   =     31.250
# p   =      5.000
# include_c1_squared =   F
# loop_mass  = t   
# alphas(MZ) =    0.11800
# alphas(M) =    0.11264
# alphas(muR) =    0.10244
# Rjet =      0.400
# order = NNLL
# pdf name and set = PDF4LHC15_nnlo_mc.LHgrid,    0
# matching scheme = b
# total cross sections [nb] at LO, NLOdiff, NNLOdiff, N3LOdiff =     0.011501    0.015066    0.010526    0.005600
#----------------------------------------------------------------------
# the lines that follow give the jet-veto efficiencies as a function of pt
#         pt            matched eff      resummed eff     fixed-order eff
   2.00000000E+001   4.15280743E-001   5.75447431E-001   3.67201827E-001
   2.50000000E+001   4.97178523E-001   6.51211429E-001   4.73161072E-001
   3.00000000E+001   5.65388205E-001   6.95711541E-001   5.53722917E-001
   3.50000000E+001   6.22875366E-001   7.19907442E-001   6.17253656E-001
   4.00000000E+001   6.71332225E-001   7.32610629E-001   6.68576569E-001
   4.50000000E+001   7.11988825E-001   7.39322007E-001   7.10591480E-001
   5.00000000E+001   7.46409091E-001   7.42977132E-001   7.45672623E-001
   5.50000000E+001   7.75627906E-001   7.45047899E-001   7.75224424E-001
   6.00000000E+001   8.00695669E-001   7.46269421E-001   8.00466992E-001
   6.50000000E+001   8.22302237E-001   7.47017798E-001   8.22168588E-001
   7.00000000E+001   8.40919270E-001   7.47492286E-001   8.40838970E-001
   7.50000000E+001   8.57267695E-001   7.47802463E-001   8.57218355E-001
   8.00000000E+001   8.71601090E-001   7.48010813E-001   8.71570191E-001
   8.50000000E+001   8.84145018E-001   7.48154187E-001   8.84125319E-001
   9.00000000E+001   8.95242383E-001   7.48254998E-001   8.95229677E-001
   9.50000000E+001   9.05029634E-001   7.48327260E-001   9.05021342E-001
   1.00000000E+002   9.13776807E-001   7.48379966E-001   9.13771358E-001
   1.05000000E+002   9.21581096E-001   7.48419015E-001   9.21577501E-001
   1.10000000E+002   9.28484941E-001   7.48448359E-001   9.28482563E-001
   1.15000000E+002   9.34752659E-001   7.48470697E-001   9.34751096E-001
   1.20000000E+002   9.40354867E-001   7.48487905E-001   9.40353848E-001
   1.25000000E+002   9.45420821E-001   7.48501305E-001   9.45420170E-001
   1.30000000E+002   9.50013156E-001   7.48511845E-001   9.50012754E-001
   1.35000000E+002   9.54139541E-001   7.48520212E-001   9.54139308E-001
   1.40000000E+002   9.57892522E-001   7.48526911E-001   9.57892400E-001
   1.45000000E+002   9.61329363E-001   7.48532317E-001   9.61329318E-001
   1.50000000E+002   9.64412359E-001   7.48536712E-001   9.64412364E-001
   1.55000000E+002   9.67265369E-001   7.48540310E-001   9.67265406E-001
   1.60000000E+002   9.69867818E-001   7.48543275E-001   9.69867876E-001
   1.65000000E+002   9.72229659E-001   7.48545733E-001   9.72229728E-001
   1.70000000E+002   9.74397568E-001   7.48547782E-001   9.74397644E-001
   1.75000000E+002   9.76352363E-001   7.48549499E-001   9.76352441E-001
   1.80000000E+002   9.78164593E-001   7.48550946E-001   9.78164670E-001
   1.85000000E+002   9.79813018E-001   7.48552171E-001   9.79813093E-001
   1.90000000E+002   9.81339683E-001   7.48553212E-001   9.81339755E-001
   1.95000000E+002   9.82748285E-001   7.48554101E-001   9.82748354E-001
   2.00000000E+002   9.84028971E-001   7.48554863E-001   9.84029035E-001
   2.05000000E+002   9.85224021E-001   7.48555519E-001   9.85224081E-001
   2.10000000E+002   9.86306143E-001   7.48556086E-001   9.86306199E-001
   2.15000000E+002   9.87297659E-001   7.48556577E-001   9.87297711E-001
   2.20000000E+002   9.88224567E-001   7.48557004E-001   9.88224615E-001
   2.25000000E+002   9.89074314E-001   7.48557377E-001   9.89074358E-001
   2.30000000E+002   9.89861846E-001   7.48557703E-001   9.89861887E-001
   2.35000000E+002   9.90598293E-001   7.48557989E-001   9.90598331E-001
   2.40000000E+002   9.91263013E-001   7.48558241E-001   9.91263048E-001
   2.45000000E+002   9.91886580E-001   7.48558464E-001   9.91886612E-001
