# python build-Q2-histos.py --mtQ1file ../../JetVHeto/benchmarks-n3lo-smallR/H125-LHC13-R04-mb-0-mt-1725-xmur100-xmuf100-xQ050-NNLO+NNLLa.R0-1.0.res --mtQ2file ../../JetVHeto/benchmarks-n3lo-smallR/H125-LHC13-R04-mb-0-mt-1725-xmur100-xmuf100-xQ0625-NNLO+NNLLa.R0-1.0.res --mtmbQ2file ../../JetVHeto/benchmarks-n3lo-smallR/H125-LHC13-R04-mb-475-mt-1725-xmur100-xmuf100-xQ0625-NNLO+NNLLa.R0-1.0.res
# process = H    
# collider = pp   
# rts =  13000.000
# M   =    125.000
# muR =    125.000
# muF =    125.000
# Q1  =  62.500; Q2  =  7.812
# p   =      5.000
# include_c1_squared =   F
# loop_mass  = t+b 
# alphas(MZ) =    0.11800
# alphas(M) =    0.11264
# alphas(muR) =    0.11264
# Rjet =      0.400
# order = NNLL
# pdf name and set = PDF4LHC15_nnlo_mc.LHgrid,    0
# matching scheme = a
# total cross sections [nb] at LO, NLOdiff, NNLOdiff, N3LOdiff =     0.012292    0.016994    0.010146    0.003834
#----------------------------------------------------------------------
# the lines that follow give the jet-veto efficiencies as a function of pt
#         pt            matched eff      resummed eff     fixed-order eff
20.0 0.476149570891 0.527037969368 0.493150502
25.0 0.565621207294 0.613578654862 0.57502485
30.0 0.63543190093 0.674914337224 0.638301171
35.0 0.690549923504 0.717842214178 0.688801162
40.0 0.734290186763 0.74732394022 0.729800784
45.0 0.769449687738 0.767055378339 0.763713984
50.0 0.79809102534 0.779857807536 0.792155543
55.0 0.821670893174 0.787899191805 0.816168137
60.0 0.841563822834 0.792809007756 0.836797648
65.0 0.85853784586 0.795749546257 0.854584097
70.0 0.87315811801 0.797497388589 0.869965602
75.0 0.885893792104 0.798540991336 0.883354565
80.0 0.897155452521 0.799173435312 0.895150407
85.0 0.907027035899 0.799565277414 0.905446499
90.0 0.915879071497 0.799814601915 0.914630889
95.0 0.923698683437 0.799977822101 0.922708788
100.0 0.930682774724 0.800087746033 0.929893229
105.0 0.936964823168 0.800163798491 0.936331059
110.0 0.942520513843 0.80021774321 0.942008406
115.0 0.94757261312 0.800256874774 0.947155949
120.0 0.952051019909 0.800285837119 0.951709725
125.0 0.956159027725 0.800307660914 0.955877636
130.0 0.959854220876 0.800324365576 0.959620741
135.0 0.9632166454 0.800337332961 0.963021762
140.0 0.966232320572 0.800347526164 0.966068699
145.0 0.969024988952 0.800355627764 0.968886869
150.0 0.971516398643 0.800362131847 0.971399196
155.0 0.973821898516 0.800367401687 0.97372195
160.0 0.975908235933 0.800371705288 0.975822606
165.0 0.977814917897 0.800375247844 0.977741229
170.0 0.979564703384 0.800378182152 0.979501024
175.0 0.98114513659 0.800380629701 0.981089888
180.0 0.982600407994 0.800382681523 0.982552292
185.0 0.98392959842 0.800384411996 0.983887543
190.0 0.985153371754 0.80038587965 0.985116487
195.0 0.98629568929 0.800387127503 0.986263234
200.0 0.987329580636 0.800388196337 0.987300933
205.0 0.988290418336 0.800389114418 0.988265058
210.0 0.989167104826 0.800389906871 0.98914459
215.0 0.989957130057 0.800390590494 0.989937088
220.0 0.990702803546 0.800391185084 0.990684915
225.0 0.99138476918 0.800391704344 0.991368764
230.0 0.992013654178 0.800392157603 0.991999301
235.0 0.99260204918 0.800392554377 0.992589146
240.0 0.993130407826 0.80039290404 0.993118784
245.0 0.993631540179 0.800393212828 0.993621047
