# ./jetvheto -in n3lo-fixed-order/H125-LHC13-R04-mb-475-mt-1725-xmur025-xmuf050-log.fxd -xQ 0.0625 -out benchmarks-n3lo-smallR/H125-LHC13-R04-mb-475-mt-1725-xmur025-xmuf050-xQ0625-NNLO+NNLLb.R0-0.5.res -scheme b -order 2 -ptmax 500.01 -fixed_order 2 -small-r -loop-mass t+b -R0 0.5
# process = H    
# collider = pp   
# rts =  13000.000
# M   =    125.000
# muR =     31.250
# muF =     62.500
# Q   =      7.812
# p   =      5.000
# include_c1_squared =   F
# loop_mass  = t+b 
# alphas(MZ) =    0.11800
# alphas(M) =    0.11264
# alphas(muR) =    0.14091
# Rjet =      0.400
# order = NNLL
# pdf name and set = PDF4LHC15_nnlo_mc.LHgrid,    0
# matching scheme = b
# total cross sections [nb] at LO, NLOdiff, NNLOdiff, N3LOdiff =     0.017683    0.024805    0.005009   -0.002663
#----------------------------------------------------------------------
# the lines that follow give the jet-veto efficiencies as a function of pt
#         pt            matched eff      resummed eff     fixed-order eff
   2.00000000E+001   3.45371561E-001   3.95749199E-002   3.45013482E-001
   2.50000000E+001   4.46770343E-001   3.97318517E-002   4.46678028E-001
   3.00000000E+001   5.28173003E-001   3.97778380E-002   5.28145480E-001
   3.50000000E+001   5.94227834E-001   3.97944672E-002   5.94218939E-001
   4.00000000E+001   6.48504631E-001   3.98014458E-002   6.48501749E-001
   4.50000000E+001   6.93919083E-001   3.98047172E-002   6.93918270E-001
   5.00000000E+001   7.32217457E-001   3.98063878E-002   7.32217372E-001
   5.50000000E+001   7.64650783E-001   3.98073010E-002   7.64650938E-001
   6.00000000E+001   7.92386805E-001   3.98078287E-002   7.92387018E-001
   6.50000000E+001   8.16262936E-001   3.98081480E-002   8.16263144E-001
   7.00000000E+001   8.37069702E-001   3.98083490E-002   8.37069884E-001
   7.50000000E+001   8.54982149E-001   3.98084796E-002   8.54982301E-001
   8.00000000E+001   8.70729382E-001   3.98085671E-002   8.70729506E-001
   8.50000000E+001   8.84596093E-001   3.98086272E-002   8.84596193E-001
   9.00000000E+001   8.96748973E-001   3.98086694E-002   8.96749054E-001
   9.50000000E+001   9.07374488E-001   3.98086996E-002   9.07374553E-001
   1.00000000E+002   9.16865822E-001   3.98087216E-002   9.16865875E-001
   1.05000000E+002   9.25226103E-001   3.98087379E-002   9.25226146E-001
   1.10000000E+002   9.32660310E-001   3.98087502E-002   9.32660346E-001
   1.15000000E+002   9.39312522E-001   3.98087595E-002   9.39312551E-001
   1.20000000E+002   9.45247835E-001   3.98087667E-002   9.45247859E-001
   1.25000000E+002   9.50619366E-001   3.98087722E-002   9.50619386E-001
   1.30000000E+002   9.55354227E-001   3.98087766E-002   9.55354243E-001
   1.35000000E+002   9.59642131E-001   3.98087801E-002   9.59642145E-001
   1.40000000E+002   9.63520661E-001   3.98087829E-002   9.63520673E-001
   1.45000000E+002   9.66987833E-001   3.98087852E-002   9.66987843E-001
   1.50000000E+002   9.70161835E-001   3.98087870E-002   9.70161843E-001
   1.55000000E+002   9.73014714E-001   3.98087885E-002   9.73014721E-001
   1.60000000E+002   9.75591790E-001   3.98087897E-002   9.75591796E-001
   1.65000000E+002   9.77902577E-001   3.98087908E-002   9.77902582E-001
   1.70000000E+002   9.80011605E-001   3.98087916E-002   9.80011610E-001
   1.75000000E+002   9.81960260E-001   3.98087923E-002   9.81960264E-001
   1.80000000E+002   9.83679287E-001   3.98087929E-002   9.83679291E-001
   1.85000000E+002   9.85272357E-001   3.98087934E-002   9.85272360E-001
   1.90000000E+002   9.86723079E-001   3.98087939E-002   9.86723082E-001
   1.95000000E+002   9.88029682E-001   3.98087942E-002   9.88029685E-001
   2.00000000E+002   9.89215311E-001   3.98087946E-002   9.89215313E-001
   2.05000000E+002   9.90310196E-001   3.98087948E-002   9.90310198E-001
   2.10000000E+002   9.91272626E-001   3.98087951E-002   9.91272628E-001
   2.15000000E+002   9.92192158E-001   3.98087953E-002   9.92192159E-001
   2.20000000E+002   9.93031842E-001   3.98087955E-002   9.93031843E-001
   2.25000000E+002   9.93750668E-001   3.98087956E-002   9.93750669E-001
   2.30000000E+002   9.94477009E-001   3.98087957E-002   9.94477010E-001
   2.35000000E+002   9.95090216E-001   3.98087959E-002   9.95090217E-001
   2.40000000E+002   9.95664605E-001   3.98087960E-002   9.95664606E-001
   2.45000000E+002   9.96182359E-001   3.98087961E-002   9.96182360E-001
