# ./jetvheto -in n3lo-fixed-order/H125-LHC13-R04-mb-475-mt-1725-xmur050-xmuf025-log.fxd -xQ 0.25 -out benchmarks-n3lo-smallR/H125-LHC13-R04-mb-475-mt-1725-xmur050-xmuf025-xQ025-N3LO+NNLLa.R0-0.5.res -scheme a -order 2 -ptmax 500.01 -fixed_order 3 -small-r -loop-mass t+b -R0 0.5
# process = H    
# collider = pp   
# rts =  13000.000
# M   =    125.000
# muR =     62.500
# muF =     31.250
# Q   =     31.250
# p   =      5.000
# include_c1_squared =   F
# loop_mass  = t+b 
# alphas(MZ) =    0.11800
# alphas(M) =    0.11264
# alphas(muR) =    0.12516
# Rjet =      0.400
# order = NNLL
# pdf name and set = PDF4LHC15_nnlo_mc.LHgrid,    0
# matching scheme = a
# total cross sections [nb] at LO, NLOdiff, NNLOdiff, N3LOdiff =     0.012926    0.020318    0.009723    0.001827
#----------------------------------------------------------------------
# the lines that follow give the jet-veto efficiencies as a function of pt
#         pt            matched eff      resummed eff     fixed-order eff
   2.00000000E+001   4.34258869E-001   4.61565522E-001   4.39805765E-001
   2.50000000E+001   5.24365131E-001   5.30036384E-001   5.27879518E-001
   3.00000000E+001   5.95757156E-001   5.70885681E-001   5.97763702E-001
   3.50000000E+001   6.53335951E-001   5.93333960E-001   6.54452868E-001
   4.00000000E+001   7.01010393E-001   6.05197213E-001   7.01663673E-001
   4.50000000E+001   7.41193133E-001   6.11488944E-001   7.41596500E-001
   5.00000000E+001   7.74718641E-001   6.14923035E-001   7.74973831E-001
   5.50000000E+001   8.03930186E-001   6.16871025E-001   8.04101557E-001
   6.00000000E+001   8.28141404E-001   6.18020970E-001   8.28256473E-001
   6.50000000E+001   8.47681226E-001   6.18725811E-001   8.47757528E-001
   7.00000000E+001   8.65999285E-001   6.19172821E-001   8.66053392E-001
   7.50000000E+001   8.81580026E-001   6.19465088E-001   8.81619018E-001
   8.00000000E+001   8.94628007E-001   6.19661432E-001   8.94656024E-001
   8.50000000E+001   9.06663515E-001   6.19796555E-001   9.06684371E-001
   9.00000000E+001   9.17169768E-001   6.19891569E-001   9.17185507E-001
   9.50000000E+001   9.25069312E-001   6.19959679E-001   9.25080912E-001
   1.00000000E+002   9.33592704E-001   6.20009358E-001   9.33601797E-001
   1.05000000E+002   9.40238886E-001   6.20046165E-001   9.40245876E-001
   1.10000000E+002   9.46945209E-001   6.20073825E-001   9.46950790E-001
   1.15000000E+002   9.52726262E-001   6.20094881E-001   9.52730725E-001
   1.20000000E+002   9.57367705E-001   6.20111102E-001   9.57371245E-001
   1.25000000E+002   9.61394425E-001   6.20123733E-001   9.61397255E-001
   1.30000000E+002   9.65485830E-001   6.20133668E-001   9.65488145E-001
   1.35000000E+002   9.68879414E-001   6.20141555E-001   9.68881306E-001
   1.40000000E+002   9.72052733E-001   6.20147870E-001   9.72054298E-001
   1.45000000E+002   9.74991311E-001   6.20152966E-001   9.74992614E-001
   1.50000000E+002   9.77507366E-001   6.20157109E-001   9.77508455E-001
   1.55000000E+002   9.79814420E-001   6.20160501E-001   9.79815336E-001
   1.60000000E+002   9.82215369E-001   6.20163296E-001   9.82216151E-001
   1.65000000E+002   9.83995703E-001   6.20165613E-001   9.83996367E-001
   1.70000000E+002   9.85488050E-001   6.20167544E-001   9.85488613E-001
   1.75000000E+002   9.87248634E-001   6.20169163E-001   9.87249121E-001
   1.80000000E+002   9.88451404E-001   6.20170527E-001   9.88451821E-001
   1.85000000E+002   9.89819018E-001   6.20171681E-001   9.89819381E-001
   1.90000000E+002   9.90908512E-001   6.20172663E-001   9.90908828E-001
   1.95000000E+002   9.92062505E-001   6.20173501E-001   9.92062781E-001
   2.00000000E+002   9.92895228E-001   6.20174219E-001   9.92895469E-001
   2.05000000E+002   9.93708617E-001   6.20174837E-001   9.93708828E-001
   2.10000000E+002   9.94443220E-001   6.20175372E-001   9.94443406E-001
   2.15000000E+002   9.95259814E-001   6.20175835E-001   9.95259980E-001
   2.20000000E+002   9.95836108E-001   6.20176237E-001   9.95836254E-001
   2.25000000E+002   9.96497444E-001   6.20176589E-001   9.96497575E-001
   2.30000000E+002   9.96975818E-001   6.20176896E-001   9.96975934E-001
   2.35000000E+002   9.97332110E-001   6.20177166E-001   9.97332214E-001
   2.40000000E+002   9.97830253E-001   6.20177404E-001   9.97830347E-001
   2.45000000E+002   9.98235666E-001   6.20177613E-001   9.98235750E-001
