# ./jetvheto -in n3lo-fixed-order/H125-LHC13-R04-heft-xmur200-xmuf100-log.fxd -xQ 0.50 -out benchmarks-n3lo-smallR/H125-LHC13-R04-heft-xmur200-xmuf100-xQ050-N3LO+NNLLb.res -scheme b -order 2 -ptmax 500.01 -fixed_order 3
# process = H    
# collider = pp   
# rts =  13000.000
# M   =    125.000
# muR =    250.000
# muF =    125.000
# Q   =     62.500
# p   =      5.000
# include_c1_squared =   F
# loop_mass  = none
# alphas(MZ) =    0.11800
# alphas(M) =    0.11264
# alphas(muR) =    0.10244
# Rjet =      0.400
# order = NNLL
# pdf name and set = PDF4LHC15_nnlo_mc.LHgrid,    0
# matching scheme = b
# total cross sections [nb] at LO, NLOdiff, NNLOdiff, N3LOdiff =     0.010706    0.014429    0.010526    0.005600
#----------------------------------------------------------------------
# the lines that follow give the jet-veto efficiencies as a function of pt
#         pt            matched eff      resummed eff     fixed-order eff
   2.00000000E+001   4.31278922E-001   5.22566641E-001   4.02811325E-001
   2.50000000E+001   5.16797847E-001   6.08321156E-001   4.98234417E-001
   3.00000000E+001   5.88518976E-001   6.69737197E-001   5.75984208E-001
   3.50000000E+001   6.45625719E-001   7.13190766E-001   6.36394382E-001
   4.00000000E+001   6.92408142E-001   7.43397726E-001   6.85307948E-001
   4.50000000E+001   7.30771363E-001   7.63905255E-001   7.25186623E-001
   5.00000000E+001   7.63246513E-001   7.77444473E-001   7.58844562E-001
   5.50000000E+001   7.90943899E-001   7.86133169E-001   7.87489463E-001
   6.00000000E+001   8.14427553E-001   7.91580027E-001   8.11729972E-001
   6.50000000E+001   8.35241424E-001   7.94947329E-001   8.33150152E-001
   7.00000000E+001   8.52937093E-001   7.97024012E-001   8.51319682E-001
   7.50000000E+001   8.67895159E-001   7.98315975E-001   8.66643586E-001
   8.00000000E+001   8.81053722E-001   7.99133939E-001   8.80083273E-001
   8.50000000E+001   8.92867385E-001   7.99663802E-001   8.92112042E-001
   9.00000000E+001   9.03114841E-001   8.00015907E-001   9.02523134E-001
   9.50000000E+001   9.12403422E-001   8.00256002E-001   9.11936899E-001
   1.00000000E+002   9.20321651E-001   8.00423800E-001   9.19950993E-001
   1.05000000E+002   9.27428698E-001   8.00543766E-001   9.27131992E-001
   1.10000000E+002   9.33828609E-001   8.00631312E-001   9.33589347E-001
   1.15000000E+002   9.39581730E-001   8.00696380E-001   9.39387347E-001
   1.20000000E+002   9.44643991E-001   8.00745539E-001   9.44484945E-001
   1.25000000E+002   9.49083683E-001   8.00783221E-001   9.48952647E-001
   1.30000000E+002   9.53381986E-001   8.00812482E-001   9.53273348E-001
   1.35000000E+002   9.57215961E-001   8.00835469E-001   9.57125326E-001
   1.40000000E+002   9.60491722E-001   8.00853718E-001   9.60415664E-001
   1.45000000E+002   9.63604099E-001   8.00868343E-001   9.63539914E-001
   1.50000000E+002   9.66285472E-001   8.00880166E-001   9.66231026E-001
   1.55000000E+002   9.69023558E-001   8.00889799E-001   9.68977149E-001
   1.60000000E+002   9.71092352E-001   8.00897705E-001   9.71052595E-001
   1.65000000E+002   9.73187390E-001   8.00904237E-001   9.73153186E-001
   1.70000000E+002   9.75066659E-001   8.00909668E-001   9.75037105E-001
   1.75000000E+002   9.76854913E-001   8.00914210E-001   9.76829278E-001
   1.80000000E+002   9.78506928E-001   8.00918028E-001   9.78484606E-001
   1.85000000E+002   9.79999976E-001   8.00921254E-001   9.79980470E-001
   1.90000000E+002   9.81158466E-001   8.00923994E-001   9.81141359E-001
   1.95000000E+002   9.82496694E-001   8.00926330E-001   9.82481642E-001
   2.00000000E+002   9.83669229E-001   8.00928331E-001   9.83655946E-001
   2.05000000E+002   9.84703784E-001   8.00930052E-001   9.84692025E-001
   2.10000000E+002   9.85647504E-001   8.00931538E-001   9.85637066E-001
   2.15000000E+002   9.86625361E-001   8.00932824E-001   9.86616070E-001
   2.20000000E+002   9.87407835E-001   8.00933943E-001   9.87399543E-001
   2.25000000E+002   9.88195885E-001   8.00934918E-001   9.88188467E-001
   2.30000000E+002   9.88934652E-001   8.00935771E-001   9.88927999E-001
   2.35000000E+002   9.89631629E-001   8.00936519E-001   9.89625649E-001
   2.40000000E+002   9.90170046E-001   8.00937178E-001   9.90164659E-001
   2.45000000E+002   9.90793965E-001   8.00937759E-001   9.90789102E-001
