# ./jetvheto -in n3lo-fixed-order/H125-LHC13-R04-heft-xmur100-xmuf100-log.fxd -xQ 0.50 -out benchmarks-n3lo-smallR/H125-LHC13-R04-heft-xmur100-xmuf100-xQ050-N3LO+NNLLa.R0-2.0.res -scheme a -order 2 -ptmax 500.01 -fixed_order 3 -small-r -R0 2.0
# process = H    
# collider = pp   
# rts =  13000.000
# M   =    125.000
# muR =    125.000
# muF =    125.000
# Q   =     62.500
# p   =      5.000
# include_c1_squared =   F
# loop_mass  = none
# alphas(MZ) =    0.11800
# alphas(M) =    0.11264
# alphas(muR) =    0.11264
# Rjet =      0.400
# order = NNLL
# pdf name and set = PDF4LHC15_nnlo_mc.LHgrid,    0
# matching scheme = a
# total cross sections [nb] at LO, NLOdiff, NNLOdiff, N3LOdiff =     0.012945    0.016716    0.010146    0.003834
#----------------------------------------------------------------------
# the lines that follow give the jet-veto efficiencies as a function of pt
#         pt            matched eff      resummed eff     fixed-order eff
   2.00000000E+001   4.67550720E-001   5.26809312E-001   4.60774143E-001
   2.50000000E+001   5.52203632E-001   6.06265253E-001   5.45786875E-001
   3.00000000E+001   6.22994294E-001   6.62381433E-001   6.17068533E-001
   3.50000000E+001   6.78055403E-001   7.01537322E-001   6.72113648E-001
   4.00000000E+001   7.22405236E-001   7.28339604E-001   7.16667414E-001
   4.50000000E+001   7.58149073E-001   7.46204512E-001   7.52873009E-001
   5.00000000E+001   7.88178914E-001   7.57734279E-001   7.83562730E-001
   5.50000000E+001   8.13666835E-001   7.64925452E-001   8.09784074E-001
   6.00000000E+001   8.35045846E-001   7.69275867E-001   8.31871310E-001
   6.50000000E+001   8.54138505E-001   7.71850896E-001   8.51599627E-001
   7.00000000E+001   8.70223517E-001   7.73359409E-001   8.68219188E-001
   7.50000000E+001   8.83587814E-001   7.74244715E-001   8.82015993E-001
   8.00000000E+001   8.95355307E-001   7.74770817E-001   8.94125116E-001
   8.50000000E+001   9.06033349E-001   7.75089889E-001   9.05069202E-001
   9.00000000E+001   9.15183550E-001   7.75288439E-001   9.14424589E-001
   9.50000000E+001   9.23584539E-001   7.75415551E-001   9.22983790E-001
   1.00000000E+002   9.30601193E-001   7.75499329E-001   9.30122626E-001
   1.05000000E+002   9.36913318E-001   7.75556133E-001   9.36529413E-001
   1.10000000E+002   9.42627248E-001   7.75595688E-001   9.42317122E-001
   1.15000000E+002   9.47751321E-001   7.75623913E-001   9.47498999E-001
   1.20000000E+002   9.52219356E-001   7.75644505E-001   9.52012685E-001
   1.25000000E+002   9.56083609E-001   7.75659827E-001   9.55913202E-001
   1.30000000E+002   9.59954626E-001   7.75671431E-001   9.59813209E-001
   1.35000000E+002   9.63372760E-001   7.75680358E-001   9.63254687E-001
   1.40000000E+002   9.66225909E-001   7.75687320E-001   9.66126784E-001
   1.45000000E+002   9.68973190E-001   7.75692818E-001   9.68889494E-001
   1.50000000E+002   9.71296374E-001   7.75697207E-001   9.71225357E-001
   1.55000000E+002   9.73792375E-001   7.75700747E-001   9.73731807E-001
   1.60000000E+002   9.75496236E-001   7.75703626E-001   9.75444349E-001
   1.65000000E+002   9.77327937E-001   7.75705988E-001   9.77283286E-001
   1.70000000E+002   9.78943206E-001   7.75707940E-001   9.78904621E-001
   1.75000000E+002   9.80519323E-001   7.75709563E-001   9.80485847E-001
   1.80000000E+002   9.81970343E-001   7.75710922E-001   9.81941189E-001
   1.85000000E+002   9.83276606E-001   7.75712065E-001   9.83251126E-001
   1.90000000E+002   9.84192868E-001   7.75713033E-001   9.84170523E-001
   1.95000000E+002   9.85381975E-001   7.75713857E-001   9.85362313E-001
   2.00000000E+002   9.86400759E-001   7.75714560E-001   9.86383405E-001
   2.05000000E+002   9.87275427E-001   7.75715163E-001   9.87260065E-001
   2.10000000E+002   9.88069931E-001   7.75715683E-001   9.88056295E-001
   2.15000000E+002   9.88946363E-001   7.75716133E-001   9.88934225E-001
   2.20000000E+002   9.89590569E-001   7.75716524E-001   9.89579737E-001
   2.25000000E+002   9.90270844E-001   7.75716864E-001   9.90261153E-001
   2.30000000E+002   9.90909612E-001   7.75717161E-001   9.90900921E-001
   2.35000000E+002   9.91509618E-001   7.75717421E-001   9.91501805E-001
   2.40000000E+002   9.91930297E-001   7.75717650E-001   9.91923260E-001
   2.45000000E+002   9.92479364E-001   7.75717852E-001   9.92473011E-001
