# ./jetvheto -in n3lo-fixed-order/H125-LHC13-R04-heft-xmur050-xmuf050-log.fxd -xQ 0.75 -out benchmarks-n3lo-smallR/H125-LHC13-R04-heft-xmur050-xmuf050-xQ075-N3LO+NNLLb.res -scheme b -order 2 -ptmax 500.01 -fixed_order 3
# process = H    
# collider = pp   
# rts =  13000.000
# M   =    125.000
# muR =     62.500
# muF =     62.500
# Q   =     93.750
# p   =      5.000
# include_c1_squared =   F
# loop_mass  = none
# alphas(MZ) =    0.11800
# alphas(M) =    0.11264
# alphas(muR) =    0.12516
# Rjet =      0.400
# order = NNLL
# pdf name and set = PDF4LHC15_nnlo_mc.LHgrid,    0
# matching scheme = b
# total cross sections [nb] at LO, NLOdiff, NNLOdiff, N3LOdiff =     0.015055    0.019611    0.008998    0.001413
#----------------------------------------------------------------------
# the lines that follow give the jet-veto efficiencies as a function of pt
#         pt            matched eff      resummed eff     fixed-order eff
   2.00000000E+001   4.60237363E-001   5.35821914E-001   4.32272620E-001
   2.50000000E+001   5.45928289E-001   6.17398336E-001   5.20076688E-001
   3.00000000E+001   6.18218561E-001   6.74630483E-001   5.95188306E-001
   3.50000000E+001   6.75453243E-001   7.14470736E-001   6.54648121E-001
   4.00000000E+001   7.19676783E-001   7.41757796E-001   7.00880952E-001
   4.50000000E+001   7.58132240E-001   7.59901123E-001   7.41355940E-001
   5.00000000E+001   7.88643550E-001   7.71344205E-001   7.73800605E-001
   5.50000000E+001   8.15084713E-001   7.77888990E-001   8.02051238E-001
   6.00000000E+001   8.36495892E-001   7.80884353E-001   8.25176712E-001
   6.50000000E+001   8.56355116E-001   7.81371639E-001   8.46550538E-001
   7.00000000E+001   8.71469909E-001   7.80166261E-001   8.63110860E-001
   7.50000000E+001   8.84979893E-001   7.77905040E-001   8.77894218E-001
   8.00000000E+001   8.97203477E-001   7.75076660E-001   8.91221610E-001
   8.50000000E+001   9.08063865E-001   7.72040411E-001   9.03036791E-001
   9.00000000E+001   9.17692174E-001   7.69044370E-001   9.13482770E-001
   9.50000000E+001   9.25350409E-001   7.66243393E-001   9.21853677E-001
   1.00000000E+002   9.32678696E-001   7.63721555E-001   9.29768082E-001
   1.05000000E+002   9.38523222E-001   7.61511387E-001   9.36111694E-001
   1.10000000E+002   9.43963521E-001   7.59611430E-001   9.41960757E-001
   1.15000000E+002   9.49125768E-001   7.58000243E-001   9.47456202E-001
   1.20000000E+002   9.53809274E-001   7.56646540E-001   9.52413885E-001
   1.25000000E+002   9.57672067E-001   7.55515820E-001   9.56505189E-001
   1.30000000E+002   9.61060726E-001   7.54574545E-001   9.60082213E-001
   1.35000000E+002   9.64484588E-001   7.53792107E-001   9.63658956E-001
   1.40000000E+002   9.67596003E-001   7.53141668E-001   9.66896738E-001
   1.45000000E+002   9.70267242E-001   7.52600341E-001   9.69673261E-001
   1.50000000E+002   9.72348251E-001   7.52148951E-001   9.71842925E-001
   1.55000000E+002   9.74756239E-001   7.51771609E-001   9.74323047E-001
   1.60000000E+002   9.76941593E-001   7.51455253E-001   9.76568926E-001
   1.65000000E+002   9.78264612E-001   7.51189183E-001   9.77944247E-001
   1.70000000E+002   9.80010146E-001   7.50964660E-001   9.79732679E-001
   1.75000000E+002   9.81648946E-001   7.50774546E-001   9.81407724E-001
   1.80000000E+002   9.82908371E-001   7.50613008E-001   9.82698288E-001
   1.85000000E+002   9.84062520E-001   7.50475276E-001   9.83878937E-001
   1.90000000E+002   9.85258465E-001   7.50357439E-001   9.85097366E-001
   1.95000000E+002   9.86362414E-001   7.50256283E-001   9.86220604E-001
   2.00000000E+002   9.87348405E-001   7.50169160E-001   9.87223233E-001
   2.05000000E+002   9.88147370E-001   7.50093882E-001   9.88036656E-001
   2.10000000E+002   9.88959747E-001   7.50028634E-001   9.88861494E-001
   2.15000000E+002   9.89591633E-001   7.49971908E-001   9.89504277E-001
   2.20000000E+002   9.90486115E-001   7.49922445E-001   9.90408081E-001
   2.25000000E+002   9.90972504E-001   7.49879194E-001   9.90902794E-001
   2.30000000E+002   9.91564701E-001   7.49841268E-001   9.91502219E-001
   2.35000000E+002   9.92017367E-001   7.49807925E-001   9.91961268E-001
   2.40000000E+002   9.92504548E-001   7.49778535E-001   9.92454049E-001
   2.45000000E+002   9.93069745E-001   7.49752564E-001   9.93024154E-001
