# ./jetvheto -in n3lo-fixed-order/H125-LHC13-R04-mb-475-mt-1725-xmur050-xmuf050-log.fxd -xQ 1.0 -out benchmarks-n3lo-smallR/H125-LHC13-R04-mb-475-mt-1725-xmur050-xmuf050-xQ100-N3LO+NNLLa.res -scheme a -order 2 -ptmax 500.01 -fixed_order 3 -loop-mass t+b
# process = H    
# collider = pp   
# rts =  13000.000
# M   =    125.000
# muR =     62.500
# muF =     62.500
# Q   =    125.000
# p   =      5.000
# include_c1_squared =   F
# loop_mass  = t+b 
# alphas(MZ) =    0.11800
# alphas(M) =    0.11264
# alphas(muR) =    0.12516
# Rjet =      0.400
# order = NNLL
# pdf name and set = PDF4LHC15_nnlo_mc.LHgrid,    0
# matching scheme = a
# total cross sections [nb] at LO, NLOdiff, NNLOdiff, N3LOdiff =     0.014147    0.020254    0.008998    0.001413
#----------------------------------------------------------------------
# the lines that follow give the jet-veto efficiencies as a function of pt
#         pt            matched eff      resummed eff     fixed-order eff
   2.00000000E+001   4.70810244E-001   5.65925301E-001   4.41074844E-001
   2.50000000E+001   5.57760779E-001   6.46803184E-001   5.26291803E-001
   3.00000000E+001   6.31037040E-001   7.02642824E-001   5.99588615E-001
   3.50000000E+001   6.89056766E-001   7.40814789E-001   6.58104134E-001
   4.00000000E+001   7.33532582E-001   7.66422294E-001   7.03699261E-001
   4.50000000E+001   7.72353073E-001   7.82941078E-001   7.43908515E-001
   5.00000000E+001   8.02962153E-001   7.92804834E-001   7.76267730E-001
   5.50000000E+001   8.29332730E-001   7.97765641E-001   8.04438345E-001
   6.00000000E+001   8.50607827E-001   7.99100661E-001   8.27667847E-001
   6.50000000E+001   8.70242899E-001   7.97767138E-001   8.49073502E-001
   7.00000000E+001   8.84976876E-001   7.94499137E-001   8.65767048E-001
   7.50000000E+001   8.98063339E-001   7.89862378E-001   8.80674091E-001
   8.00000000E+001   9.09843685E-001   7.84303065E-001   8.94138038E-001
   8.50000000E+001   9.20232723E-001   7.78179472E-001   9.06106835E-001
   9.00000000E+001   9.29257348E-001   7.71780006E-001   9.16611008E-001
   9.50000000E+001   9.36279959E-001   7.65334464E-001   9.25078477E-001
   1.00000000E+002   9.43019240E-001   7.59024197E-001   9.33101787E-001
   1.05000000E+002   9.48287559E-001   7.52986344E-001   9.39585604E-001
   1.10000000E+002   9.53116607E-001   7.47318761E-001   9.45495190E-001
   1.15000000E+002   9.57766020E-001   7.42085283E-001   9.51094105E-001
   1.20000000E+002   9.61935380E-001   7.37319212E-001   9.56107678E-001
   1.25000000E+002   9.65363097E-001   7.33029753E-001   9.60296277E-001
   1.30000000E+002   9.68335621E-001   7.29207543E-001   9.63938023E-001
   1.35000000E+002   9.71372298E-001   7.25829673E-001   9.67546891E-001
   1.40000000E+002   9.74157474E-001   7.22864356E-001   9.70830250E-001
   1.45000000E+002   9.76556542E-001   7.20274840E-001   9.73664645E-001
   1.50000000E+002   9.78396079E-001   7.18022475E-001   9.75887820E-001
   1.55000000E+002   9.80599335E-001   7.16068957E-001   9.78411529E-001
   1.60000000E+002   9.82578486E-001   7.14377831E-001   9.80668095E-001
   1.65000000E+002   9.83736224E-001   7.12915369E-001   9.82074144E-001
   1.70000000E+002   9.85305320E-001   7.11651125E-001   9.83850040E-001
   1.75000000E+002   9.86797747E-001   7.10558039E-001   9.85520635E-001
   1.80000000E+002   9.87918350E-001   7.09612305E-001   9.86797346E-001
   1.85000000E+002   9.88961598E-001   7.08793202E-001   9.87975392E-001
   1.90000000E+002   9.90042929E-001   7.08082816E-001   9.89172337E-001
   1.95000000E+002   9.91045156E-001   7.07465743E-001   9.90274812E-001
   2.00000000E+002   9.91929364E-001   7.06928781E-001   9.91246363E-001
   2.05000000E+002   9.92628771E-001   7.06460643E-001   9.92022417E-001
   2.10000000E+002   9.93335324E-001   7.06051694E-001   9.92795408E-001
   2.15000000E+002   9.93884263E-001   7.05693717E-001   9.93402921E-001
   2.20000000E+002   9.94690487E-001   7.05379700E-001   9.94259310E-001
   2.25000000E+002   9.95092368E-001   7.05103660E-001   9.94706379E-001
   2.30000000E+002   9.95595956E-001   7.04860490E-001   9.95249343E-001
   2.35000000E+002   9.95965700E-001   7.04645822E-001   9.95654001E-001
   2.40000000E+002   9.96368987E-001   7.04455918E-001   9.96087982E-001
   2.45000000E+002   9.96839764E-001   7.04287572E-001   9.96585702E-001
