# ./jetvheto -in n3lo-fixed-order/H125-LHC13-R04-mb-0-mt-1725-xmur100-xmuf100-log.fxd -xQ 0.333 -out benchmarks-n3lo-smallR/H125-LHC13-R04-mb-0-mt-1725-xmur100-xmuf100-xQ033-N3LO+NNLLb.R0-0.5.res -scheme b -order 2 -ptmax 500.01 -small-r -fixed_order 3 -loop-mass t -R0 0.5
# process = H    
# collider = pp   
# rts =  13000.000
# M   =    125.000
# muR =    125.000
# muF =    125.000
# Q   =     41.625
# p   =      5.000
# include_c1_squared =   F
# loop_mass  = t   
# alphas(MZ) =    0.11800
# alphas(M) =    0.11264
# alphas(muR) =    0.11264
# Rjet =      0.400
# order = NNLL
# pdf name and set = PDF4LHC15_nnlo_mc.LHgrid,    0
# matching scheme = b
# total cross sections [nb] at LO, NLOdiff, NNLOdiff, N3LOdiff =     0.013801    0.017514    0.010146    0.003834
#----------------------------------------------------------------------
# the lines that follow give the jet-veto efficiencies as a function of pt
#         pt            matched eff      resummed eff     fixed-order eff
   2.00000000E+001   4.42373599E-001   5.26066571E-001   4.21593782E-001
   2.50000000E+001   5.26697465E-001   6.06722887E-001   5.13960990E-001
   3.00000000E+001   5.98406489E-001   6.61176276E-001   5.91015610E-001
   3.50000000E+001   6.55142822E-001   6.96396282E-001   6.50645918E-001
   4.00000000E+001   7.01610412E-001   7.18224346E-001   6.98836983E-001
   4.50000000E+001   7.39668781E-001   7.31356315E-001   7.37928057E-001
   5.00000000E+001   7.72132304E-001   7.39177964E-001   7.71030473E-001
   5.50000000E+001   7.99984015E-001   7.43872818E-001   7.99275639E-001
   6.00000000E+001   8.23528462E-001   7.46745033E-001   8.23059681E-001
   6.50000000E+001   8.44558097E-001   7.48545751E-001   8.44243758E-001
   7.00000000E+001   8.62287944E-001   7.49704468E-001   8.62070819E-001
   7.50000000E+001   8.77080370E-001   7.50469316E-001   8.76925464E-001
   8.00000000E+001   8.90079735E-001   7.50986425E-001   8.89967148E-001
   8.50000000E+001   9.01811314E-001   7.51343856E-001   9.01728487E-001
   9.00000000E+001   9.11810069E-001   7.51595958E-001   9.11747759E-001
   9.50000000E+001   9.20956940E-001   7.51777070E-001   9.20909613E-001
   1.00000000E+002   9.28616240E-001   7.51909378E-001   9.28579537E-001
   1.05000000E+002   9.35483413E-001   7.52007518E-001   9.35454626E-001
   1.10000000E+002   9.41651461E-001   7.52081332E-001   9.41628668E-001
   1.15000000E+002   9.47195378E-001   7.52137562E-001   9.47177133E-001
   1.20000000E+002   9.52011652E-001   7.52180899E-001   9.51996886E-001
   1.25000000E+002   9.56186017E-001   7.52214660E-001   9.56173934E-001
   1.30000000E+002   9.60366210E-001   7.52241223E-001   9.60356305E-001
   1.35000000E+002   9.64016635E-001   7.52262314E-001   9.64008440E-001
   1.40000000E+002   9.67098842E-001   7.52279205E-001   9.67091995E-001
   1.45000000E+002   9.70040646E-001   7.52292838E-001   9.70034899E-001
   1.50000000E+002   9.72532358E-001   7.52303923E-001   9.72527497E-001
   1.55000000E+002   9.75216567E-001   7.52312999E-001   9.75212455E-001
   1.60000000E+002   9.77044635E-001   7.52320478E-001   9.77041107E-001
   1.65000000E+002   9.79001077E-001   7.52326678E-001   9.78998050E-001
   1.70000000E+002   9.80712208E-001   7.52331847E-001   9.80709596E-001
   1.75000000E+002   9.82372883E-001   7.52336180E-001   9.82370623E-001
   1.80000000E+002   9.83897160E-001   7.52339830E-001   9.83895197E-001
   1.85000000E+002   9.85266235E-001   7.52342920E-001   9.85264523E-001
   1.90000000E+002   9.86226971E-001   7.52345547E-001   9.86225466E-001
   1.95000000E+002   9.87457817E-001   7.52347790E-001   9.87456496E-001
   2.00000000E+002   9.88502270E-001   7.52349714E-001   9.88501106E-001
   2.05000000E+002   9.89400996E-001   7.52351369E-001   9.89399966E-001
   2.10000000E+002   9.90205030E-001   7.52352799E-001   9.90204115E-001
   2.15000000E+002   9.91096532E-001   7.52354038E-001   9.91095719E-001
   2.20000000E+002   9.91742531E-001   7.52355117E-001   9.91741805E-001
   2.25000000E+002   9.92422959E-001   7.52356057E-001   9.92422310E-001
   2.30000000E+002   9.93057183E-001   7.52356880E-001   9.93056602E-001
   2.35000000E+002   9.93644025E-001   7.52357603E-001   9.93643503E-001
   2.40000000E+002   9.94042237E-001   7.52358239E-001   9.94041766E-001
   2.45000000E+002   9.94575818E-001   7.52358800E-001   9.94575393E-001
