# ./jetvheto -in n3lo-fixed-order/H125-LHC13-R04-heft-xmur100-xmuf050-log.fxd -xQ 0.50 -out benchmarks-n3lo-smallR/H125-LHC13-R04-heft-xmur100-xmuf050-xQ050-NNLO+NNLLa.res -scheme a -order 2 -ptmax 500.01 -fixed_order 2
# process = H    
# collider = pp   
# rts =  13000.000
# M   =    125.000
# muR =    125.000
# muF =     62.500
# Q   =     62.500
# p   =      5.000
# include_c1_squared =   F
# loop_mass  = none
# alphas(MZ) =    0.11800
# alphas(M) =    0.11264
# alphas(muR) =    0.11264
# Rjet =      0.400
# order = NNLL
# pdf name and set = PDF4LHC15_nnlo_mc.LHgrid,    0
# matching scheme = a
# total cross sections [nb] at LO, NLOdiff, NNLOdiff, N3LOdiff =     0.012193    0.016617    0.010424    0.004163
#----------------------------------------------------------------------
# the lines that follow give the jet-veto efficiencies as a function of pt
#         pt            matched eff      resummed eff     fixed-order eff
   2.00000000E+001   4.67128063E-001   4.97573859E-001   5.00005148E-001
   2.50000000E+001   5.57581369E-001   5.82033645E-001   5.80577103E-001
   3.00000000E+001   6.28595420E-001   6.42719635E-001   6.42777972E-001
   3.50000000E+001   6.84548289E-001   6.85789288E-001   6.92001685E-001
   4.00000000E+001   7.29177483E-001   7.15843526E-001   7.32013126E-001
   4.50000000E+001   7.65093776E-001   7.36331666E-001   7.65088462E-001
   5.00000000E+001   7.94324418E-001   7.49922001E-001   7.92811925E-001
   5.50000000E+001   8.18428994E-001   7.58696630E-001   8.16302258E-001
   6.00000000E+001   8.38519402E-001   7.64240997E-001   8.36308346E-001
   6.50000000E+001   8.55612048E-001   7.67700202E-001   8.53585472E-001
   7.00000000E+001   8.70359357E-001   7.69855485E-001   8.68621111E-001
   7.50000000E+001   8.83087973E-001   7.71210956E-001   8.81650703E-001
   8.00000000E+001   8.94269730E-001   7.72078502E-001   8.93105029E-001
   8.50000000E+001   9.04150565E-001   7.72646312E-001   9.03215964E-001
   9.00000000E+001   9.12917445E-001   7.73027278E-001   9.12169984E-001
   9.50000000E+001   9.20666746E-001   7.73289305E-001   9.20068434E-001
   1.00000000E+002   9.27586776E-001   7.73473809E-001   9.27106365E-001
   1.05000000E+002   9.33749628E-001   7.73606561E-001   9.33362021E-001
   1.10000000E+002   9.39301746E-001   7.73703953E-001   9.38987288E-001
   1.15000000E+002   9.44271466E-001   7.73776661E-001   9.44014833E-001
   1.20000000E+002   9.48768239E-001   7.73831790E-001   9.48557509E-001
   1.25000000E+002   9.52830269E-001   7.73874173E-001   9.52656183E-001
   1.30000000E+002   9.56486912E-001   7.73907166E-001   9.56342226E-001
   1.35000000E+002   9.59817412E-001   7.73933137E-001   9.59696470E-001
   1.40000000E+002   9.62846106E-001   7.73953788E-001   9.62744448E-001
   1.45000000E+002   9.65573090E-001   7.73970360E-001   9.65487186E-001
   1.50000000E+002   9.68082295E-001   7.73983772E-001   9.68009336E-001
   1.55000000E+002   9.70353867E-001   7.73994710E-001   9.70291602E-001
   1.60000000E+002   9.72451218E-001   7.74003693E-001   9.72397833E-001
   1.65000000E+002   9.74350422E-001   7.74011121E-001   9.74304451E-001
   1.70000000E+002   9.76109881E-001   7.74017300E-001   9.76070130E-001
   1.75000000E+002   9.77733559E-001   7.74022469E-001   9.77699050E-001
   1.80000000E+002   9.79211792E-001   7.74026816E-001   9.79181720E-001
   1.85000000E+002   9.80577471E-001   7.74030491E-001   9.80551173E-001
   1.90000000E+002   9.81838533E-001   7.74033612E-001   9.81815457E-001
   1.95000000E+002   9.82993805E-001   7.74036275E-001   9.82973491E-001
   2.00000000E+002   9.84063495E-001   7.74038556E-001   9.84045556E-001
   2.05000000E+002   9.85063129E-001   7.74040517E-001   9.85047240E-001
   2.10000000E+002   9.85979332E-001   7.74042211E-001   9.85965220E-001
   2.15000000E+002   9.86836568E-001   7.74043678E-001   9.86824000E-001
   2.20000000E+002   9.87632570E-001   7.74044954E-001   9.87621349E-001
   2.25000000E+002   9.88355677E-001   7.74046066E-001   9.88345632E-001
   2.30000000E+002   9.89059326E-001   7.74047039E-001   9.89050314E-001
   2.35000000E+002   9.89689023E-001   7.74047893E-001   9.89680920E-001
   2.40000000E+002   9.90286230E-001   7.74048644E-001   9.90278927E-001
   2.45000000E+002   9.90842195E-001   7.74049307E-001   9.90835600E-001
