# ./jetvheto -in n3lo-fixed-order/H125-LHC13-R04-mb-0-mt-1725-xmur050-xmuf050-log.fxd -xQ 0.25 -out benchmarks-n3lo-smallR/H125-LHC13-R04-mb-0-mt-1725-xmur050-xmuf050-xQ025-N3LO+NNLLb.R0-2.0.res -scheme b -order 2 -ptmax 500.01 -small-r -fixed_order 3 -loop-mass t -R0 2.0
# process = H    
# collider = pp   
# rts =  13000.000
# M   =    125.000
# muR =     62.500
# muF =     62.500
# Q   =     31.250
# p   =      5.000
# include_c1_squared =   F
# loop_mass  = t   
# alphas(MZ) =    0.11800
# alphas(M) =    0.11264
# alphas(muR) =    0.12516
# Rjet =      0.400
# order = NNLL
# pdf name and set = PDF4LHC15_nnlo_mc.LHgrid,    0
# matching scheme = b
# total cross sections [nb] at LO, NLOdiff, NNLOdiff, N3LOdiff =     0.015885    0.020561    0.008998    0.001413
#----------------------------------------------------------------------
# the lines that follow give the jet-veto efficiencies as a function of pt
#         pt            matched eff      resummed eff     fixed-order eff
   2.00000000E+001   4.49669622E-001   4.98283156E-001   4.41643521E-001
   2.50000000E+001   5.34218929E-001   5.66720341E-001   5.29528045E-001
   3.00000000E+001   6.06466428E-001   6.07255861E-001   6.04131024E-001
   3.50000000E+001   6.64562765E-001   6.29430543E-001   6.63337130E-001
   4.00000000E+001   7.10019232E-001   6.41116949E-001   7.09302441E-001
   4.50000000E+001   7.49779659E-001   6.47304612E-001   7.49371437E-001
   5.00000000E+001   7.81956334E-001   6.50678729E-001   7.81702411E-001
   5.50000000E+001   8.09625923E-001   6.52591671E-001   8.09465789E-001
   6.00000000E+001   8.32486653E-001   6.53720570E-001   8.32379427E-001
   6.50000000E+001   8.53575547E-001   6.54412379E-001   8.53504482E-001
   7.00000000E+001   8.69906031E-001   6.54851070E-001   8.69854849E-001
   7.50000000E+001   8.84477644E-001   6.55137877E-001   8.84440584E-001
   8.00000000E+001   8.97610140E-001   6.55330542E-001   8.97583035E-001
   8.50000000E+001   9.09253466E-001   6.55463129E-001   9.09233323E-001
   9.00000000E+001   9.19517875E-001   6.55556357E-001   9.19502663E-001
   9.50000000E+001   9.27740164E-001   6.55623187E-001   9.27728280E-001
   1.00000000E+002   9.35572508E-001   6.55671931E-001   9.35563225E-001
   1.05000000E+002   9.41795812E-001   6.55708044E-001   9.41788367E-001
   1.10000000E+002   9.47509068E-001   6.55735183E-001   9.47503067E-001
   1.15000000E+002   9.52907845E-001   6.55755843E-001   9.52903001E-001
   1.20000000E+002   9.57770339E-001   6.55771757E-001   9.57766396E-001
   1.25000000E+002   9.61825043E-001   6.55784151E-001   9.61821780E-001
   1.30000000E+002   9.65323592E-001   6.55793898E-001   9.65320871E-001
   1.35000000E+002   9.68792186E-001   6.55801637E-001   9.68789919E-001
   1.40000000E+002   9.71953251E-001   6.55807832E-001   9.71951352E-001
   1.45000000E+002   9.74704489E-001   6.55812832E-001   9.74702884E-001
   1.50000000E+002   9.76855822E-001   6.55816898E-001   9.76854447E-001
   1.55000000E+002   9.79290771E-001   6.55820226E-001   9.79289601E-001
   1.60000000E+002   9.81471680E-001   6.55822968E-001   9.81470679E-001
   1.65000000E+002   9.82817790E-001   6.55825241E-001   9.82816919E-001
   1.70000000E+002   9.84548200E-001   6.55827136E-001   9.84547446E-001
   1.75000000E+002   9.86143180E-001   6.55828724E-001   9.86142527E-001
   1.80000000E+002   9.87366199E-001   6.55830062E-001   9.87365627E-001
   1.85000000E+002   9.88490071E-001   6.55831195E-001   9.88489569E-001
   1.90000000E+002   9.89640242E-001   6.55832158E-001   9.89639801E-001
   1.95000000E+002   9.90702110E-001   6.55832980E-001   9.90701722E-001
   2.00000000E+002   9.91640875E-001   6.55833685E-001   9.91640532E-001
   2.05000000E+002   9.92381576E-001   6.55834292E-001   9.92381271E-001
   2.10000000E+002   9.93124627E-001   6.55834816E-001   9.93124356E-001
   2.15000000E+002   9.93702409E-001   6.55835270E-001   9.93702166E-001
   2.20000000E+002   9.94524186E-001   6.55835665E-001   9.94523970E-001
   2.25000000E+002   9.94951409E-001   6.55836010E-001   9.94951215E-001
   2.30000000E+002   9.95476897E-001   6.55836311E-001   9.95476723E-001
   2.35000000E+002   9.95859676E-001   6.55836576E-001   9.95859519E-001
   2.40000000E+002   9.96276896E-001   6.55836809E-001   9.96276754E-001
   2.45000000E+002   9.96764607E-001   6.55837015E-001   9.96764480E-001
