# ./jetvheto -in n3lo-fixed-order/H125-LHC13-R04-heft-xmur050-xmuf050-log.fxd -xQ 0.333 -out benchmarks-n3lo-smallR/H125-LHC13-R04-heft-xmur050-xmuf050-xQ033-NNLO+NNLLb.res -scheme b -order 2 -ptmax 500.01 -fixed_order 2
# process = H    
# collider = pp   
# rts =  13000.000
# M   =    125.000
# muR =     62.500
# muF =     62.500
# Q   =     41.625
# p   =      5.000
# include_c1_squared =   F
# loop_mass  = none
# alphas(MZ) =    0.11800
# alphas(M) =    0.11264
# alphas(muR) =    0.12516
# Rjet =      0.400
# order = NNLL
# pdf name and set = PDF4LHC15_nnlo_mc.LHgrid,    0
# matching scheme = b
# total cross sections [nb] at LO, NLOdiff, NNLOdiff, N3LOdiff =     0.015055    0.019611    0.008998    0.001413
#----------------------------------------------------------------------
# the lines that follow give the jet-veto efficiencies as a function of pt
#         pt            matched eff      resummed eff     fixed-order eff
   2.00000000E+001   3.91779771E-001   4.84774485E-001   3.20844325E-001
   2.50000000E+001   4.73777948E-001   5.61327375E-001   4.29272444E-001
   3.00000000E+001   5.41820655E-001   6.13243384E-001   5.13978769E-001
   3.50000000E+001   5.98742819E-001   6.46949498E-001   5.81442017E-001
   4.00000000E+001   6.47186642E-001   6.67916263E-001   6.36470582E-001
   4.50000000E+001   6.88724178E-001   6.80571096E-001   6.82049408E-001
   5.00000000E+001   7.24522009E-001   6.88127306E-001   7.20304754E-001
   5.50000000E+001   7.55429197E-001   6.92670783E-001   7.52707770E-001
   6.00000000E+001   7.82091717E-001   6.95453630E-001   7.80293093E-001
   6.50000000E+001   8.05312783E-001   6.97199741E-001   8.04094553E-001
   7.00000000E+001   8.25643909E-001   6.98323935E-001   8.24799203E-001
   7.50000000E+001   8.43288478E-001   6.99066270E-001   8.42689242E-001
   8.00000000E+001   8.58836942E-001   6.99568285E-001   8.58403155E-001
   8.50000000E+001   8.72568549E-001   6.99915343E-001   8.72248607E-001
   9.00000000E+001   8.84730212E-001   7.00160160E-001   8.84490214E-001
   9.50000000E+001   8.95426790E-001   7.00336053E-001   8.95243884E-001
   1.00000000E+002   9.04963488E-001   7.00464558E-001   9.04822178E-001
   1.05000000E+002   9.13407969E-001   7.00559880E-001   9.13297358E-001
   1.10000000E+002   9.20996988E-001   7.00631579E-001   9.20909416E-001
   1.15000000E+002   9.27765013E-001   7.00686198E-001   9.27694941E-001
   1.20000000E+002   9.33867882E-001   7.00728294E-001   9.33811268E-001
   1.25000000E+002   9.39368483E-001   7.00761089E-001   9.39322340E-001
   1.30000000E+002   9.44289329E-001   7.00786893E-001   9.44251399E-001
   1.35000000E+002   9.48767100E-001   7.00807381E-001   9.48735691E-001
   1.40000000E+002   9.52824000E-001   7.00823789E-001   9.52797807E-001
   1.45000000E+002   9.56461443E-001   7.00837033E-001   9.56439457E-001
   1.50000000E+002   9.59804842E-001   7.00847801E-001   9.59786275E-001
   1.55000000E+002   9.62820114E-001   7.00856618E-001   9.62804347E-001
   1.60000000E+002   9.65593131E-001   7.00863883E-001   9.65579670E-001
   1.65000000E+002   9.68093559E-001   7.00869907E-001   9.68082008E-001
   1.70000000E+002   9.70407784E-001   7.00874928E-001   9.70397828E-001
   1.75000000E+002   9.72541174E-001   7.00879137E-001   9.72532555E-001
   1.80000000E+002   9.74468095E-001   7.00882683E-001   9.74460602E-001
   1.85000000E+002   9.76246336E-001   7.00885685E-001   9.76239797E-001
   1.90000000E+002   9.77886279E-001   7.00888237E-001   9.77880551E-001
   1.95000000E+002   9.79380321E-001   7.00890416E-001   9.79375286E-001
   2.00000000E+002   9.80759079E-001   7.00892284E-001   9.80754640E-001
   2.05000000E+002   9.82046681E-001   7.00893892E-001   9.82042753E-001
   2.10000000E+002   9.83216837E-001   7.00895282E-001   9.83213352E-001
   2.15000000E+002   9.84315206E-001   7.00896486E-001   9.84312105E-001
   2.20000000E+002   9.85332173E-001   7.00897533E-001   9.85329407E-001
   2.25000000E+002   9.86243988E-001   7.00898447E-001   9.86241514E-001
   2.30000000E+002   9.87144045E-001   7.00899246E-001   9.87141826E-001
   2.35000000E+002   9.87937627E-001   7.00899948E-001   9.87935633E-001
   2.40000000E+002   9.88689606E-001   7.00900566E-001   9.88687810E-001
   2.45000000E+002   9.89388618E-001   7.00901111E-001   9.89386996E-001
