# ./jetvheto -in n3lo-fixed-order/H125-LHC13-R04-mb-0-mt-1725-xmur100-xmuf100-log.fxd -xQ 0.5 -out benchmarks-n3lo-smallR/H125-LHC13-R04-mb-0-mt-1725-xmur100-xmuf100-xQ050-N3LO+NNLLb.res -scheme b -order 2 -ptmax 500.01 -fixed_order 3 -loop-mass t
# process = H    
# collider = pp   
# rts =  13000.000
# M   =    125.000
# muR =    125.000
# muF =    125.000
# Q   =     62.500
# p   =      5.000
# include_c1_squared =   F
# loop_mass  = t   
# alphas(MZ) =    0.11800
# alphas(M) =    0.11264
# alphas(muR) =    0.11264
# Rjet =      0.400
# order = NNLL
# pdf name and set = PDF4LHC15_nnlo_mc.LHgrid,    0
# matching scheme = b
# total cross sections [nb] at LO, NLOdiff, NNLOdiff, N3LOdiff =     0.013801    0.017514    0.010146    0.003834
#----------------------------------------------------------------------
# the lines that follow give the jet-veto efficiencies as a function of pt
#         pt            matched eff      resummed eff     fixed-order eff
   2.00000000E+001   4.46575118E-001   5.20624865E-001   4.21593782E-001
   2.50000000E+001   5.31896302E-001   6.04227448E-001   5.13960990E-001
   3.00000000E+001   6.03904316E-001   6.63556382E-001   5.91015610E-001
   3.50000000E+001   6.60591474E-001   7.05132637E-001   6.50645918E-001
   4.00000000E+001   7.06688513E-001   7.33726813E-001   6.98836983E-001
   4.50000000E+001   7.44167651E-001   7.52897595E-001   7.37928057E-001
   5.00000000E+001   7.75953464E-001   7.65364033E-001   7.71030473E-001
   5.50000000E+001   8.03126389E-001   7.73217128E-001   7.99275639E-001
   6.00000000E+001   8.26054443E-001   7.78029925E-001   8.23059681E-001
   6.50000000E+001   8.46557432E-001   7.80925889E-001   8.44243758E-001
   7.00000000E+001   8.63855354E-001   7.82657024E-001   8.62070819E-001
   7.50000000E+001   8.78303483E-001   7.83697469E-001   8.76925464E-001
   8.00000000E+001   8.91034439E-001   7.84332607E-001   8.89967148E-001
   8.50000000E+001   9.02558898E-001   7.84729166E-001   9.01728487E-001
   9.00000000E+001   9.12398286E-001   7.84983468E-001   9.11747759E-001
   9.50000000E+001   9.21422757E-001   7.85151217E-001   9.20909613E-001
   1.00000000E+002   9.28987385E-001   7.85264998E-001   9.28579537E-001
   1.05000000E+002   9.35781275E-001   7.85344233E-001   9.35454626E-001
   1.10000000E+002   9.41892234E-001   7.85400760E-001   9.41628668E-001
   1.15000000E+002   9.47391401E-001   7.85441972E-001   9.47177133E-001
   1.20000000E+002   9.52172289E-001   7.85472607E-001   9.51996886E-001
   1.25000000E+002   9.56318509E-001   7.85495775E-001   9.56173934E-001
   1.30000000E+002   9.60476244E-001   7.85513565E-001   9.60356305E-001
   1.35000000E+002   9.64108559E-001   7.85527411E-001   9.64008440E-001
   1.40000000E+002   9.67176037E-001   7.85538318E-001   9.67091995E-001
   1.45000000E+002   9.70105853E-001   7.85547004E-001   9.70034899E-001
   1.50000000E+002   9.72587699E-001   7.85553987E-001   9.72527497E-001
   1.55000000E+002   9.75263794E-001   7.85559652E-001   9.75212455E-001
   1.60000000E+002   9.77085090E-001   7.85564284E-001   9.77041107E-001
   1.65000000E+002   9.79035898E-001   7.85568100E-001   9.78998050E-001
   1.70000000E+002   9.80742303E-001   7.85571264E-001   9.80709596E-001
   1.75000000E+002   9.82398998E-001   7.85573903E-001   9.82370623E-001
   1.80000000E+002   9.83919909E-001   7.85576119E-001   9.83895197E-001
   1.85000000E+002   9.85286120E-001   7.85577988E-001   9.85264523E-001
   1.90000000E+002   9.86244406E-001   7.85579572E-001   9.86225466E-001
   1.95000000E+002   9.87473162E-001   7.85580922E-001   9.87456496E-001
   2.00000000E+002   9.88515815E-001   7.85582077E-001   9.88501106E-001
   2.05000000E+002   9.89412987E-001   7.85583070E-001   9.89399966E-001
   2.10000000E+002   9.90215674E-001   7.85583926E-001   9.90204115E-001
   2.15000000E+002   9.91106008E-001   7.85584667E-001   9.91095719E-001
   2.20000000E+002   9.91750987E-001   7.85585310E-001   9.91741805E-001
   2.25000000E+002   9.92430525E-001   7.85585871E-001   9.92422310E-001
   2.30000000E+002   9.93063969E-001   7.85586362E-001   9.93056602E-001
   2.35000000E+002   9.93650125E-001   7.85586792E-001   9.93643503E-001
   2.40000000E+002   9.94047730E-001   7.85587170E-001   9.94041766E-001
   2.45000000E+002   9.94580778E-001   7.85587504E-001   9.94575393E-001
