# ./jetvheto -in n3lo-fixed-order/H125-LHC13-R04-heft-xmur050-xmuf050-log.fxd -xQ 0.50 -out benchmarks-n3lo-smallR/H125-LHC13-R04-heft-xmur050-xmuf050-xQ050-N3LO+NNLLa.R0-1.5.res -scheme a -order 2 -ptmax 500.01 -fixed_order 3 -small-r -R0 1.5
# process = H    
# collider = pp   
# rts =  13000.000
# M   =    125.000
# muR =     62.500
# muF =     62.500
# Q   =     62.500
# p   =      5.000
# include_c1_squared =   F
# loop_mass  = none
# alphas(MZ) =    0.11800
# alphas(M) =    0.11264
# alphas(muR) =    0.12516
# Rjet =      0.400
# order = NNLL
# pdf name and set = PDF4LHC15_nnlo_mc.LHgrid,    0
# matching scheme = a
# total cross sections [nb] at LO, NLOdiff, NNLOdiff, N3LOdiff =     0.015055    0.019611    0.008998    0.001413
#----------------------------------------------------------------------
# the lines that follow give the jet-veto efficiencies as a function of pt
#         pt            matched eff      resummed eff     fixed-order eff
   2.00000000E+001   4.65025324E-001   5.06275479E-001   4.50065620E-001
   2.50000000E+001   5.48928118E-001   5.82042627E-001   5.35117843E-001
   3.00000000E+001   6.19573495E-001   6.35422842E-001   6.07875407E-001
   3.50000000E+001   6.75532416E-001   6.72582551E-001   6.65471707E-001
   4.00000000E+001   7.18924740E-001   6.97967578E-001   7.10255567E-001
   4.50000000E+001   7.56638267E-001   7.14841594E-001   7.49462038E-001
   5.00000000E+001   7.86743075E-001   7.25691021E-001   7.80889863E-001
   5.50000000E+001   8.12916417E-001   7.32427806E-001   8.08255100E-001
   6.00000000E+001   8.34319397E-001   7.36483016E-001   8.30655804E-001
   6.50000000E+001   8.54203661E-001   7.38867905E-001   8.51359759E-001
   7.00000000E+001   8.69604220E-001   7.40253741E-001   8.67401068E-001
   7.50000000E+001   8.83423598E-001   7.41059048E-001   8.81721105E-001
   8.00000000E+001   8.95949573E-001   7.41532040E-001   8.94630807E-001
   8.50000000E+001   9.07102022E-001   7.41815064E-001   9.06075690E-001
   9.00000000E+001   9.16998088E-001   7.41988664E-001   9.16194285E-001
   9.50000000E+001   9.24936735E-001   7.42098166E-001   9.24302841E-001
   1.00000000E+002   9.32472921E-001   7.42169273E-001   9.31969203E-001
   1.05000000E+002   9.38517267E-001   7.42216794E-001   9.38114001E-001
   1.10000000E+002   9.44105082E-001   7.42249438E-001   9.43779750E-001
   1.15000000E+002   9.49367334E-001   7.42272442E-001   9.49102964E-001
   1.20000000E+002   9.54121637E-001   7.42289036E-001   9.53905269E-001
   1.25000000E+002   9.58046653E-001   7.42301261E-001   9.57868349E-001
   1.30000000E+002   9.61481122E-001   7.42310439E-001   9.61333266E-001
   1.35000000E+002   9.64921286E-001   7.42317445E-001   9.64797911E-001
   1.40000000E+002   9.68037764E-001   7.42322874E-001   9.67934219E-001
   1.45000000E+002   9.70711096E-001   7.42327137E-001   9.70623723E-001
   1.50000000E+002   9.72799509E-001   7.42330525E-001   9.72725389E-001
   1.55000000E+002   9.75190966E-001   7.42333245E-001   9.75127782E-001
   1.60000000E+002   9.77357386E-001   7.42335451E-001   9.77303274E-001
   1.65000000E+002   9.78682038E-001   7.42337255E-001   9.78635491E-001
   1.70000000E+002   9.80408082E-001   7.42338741E-001   9.80367872E-001
   1.75000000E+002   9.82025296E-001   7.42339975E-001   9.81990419E-001
   1.80000000E+002   9.83270898E-001   7.42341006E-001   9.83240537E-001
   1.85000000E+002   9.84410710E-001   7.42341872E-001   9.84384183E-001
   1.90000000E+002   9.85587683E-001   7.42342604E-001   9.85564426E-001
   1.95000000E+002   9.86672916E-001   7.42343226E-001   9.86652461E-001
   2.00000000E+002   9.87641714E-001   7.42343757E-001   9.87623667E-001
   2.05000000E+002   9.88427567E-001   7.42344212E-001   9.88411596E-001
   2.10000000E+002   9.89224755E-001   7.42344604E-001   9.89210583E-001
   2.15000000E+002   9.89845832E-001   7.42344943E-001   9.89833220E-001
   2.20000000E+002   9.90719951E-001   7.42345237E-001   9.90708699E-001
   2.25000000E+002   9.91197970E-001   7.42345492E-001   9.91187907E-001
   2.30000000E+002   9.91777569E-001   7.42345716E-001   9.91768546E-001
   2.35000000E+002   9.92221315E-001   7.42345912E-001   9.92213208E-001
   2.40000000E+002   9.92697845E-001   7.42346084E-001   9.92690544E-001
   2.45000000E+002   9.93249371E-001   7.42346235E-001   9.93242783E-001
