# ./jetvheto -in n3lo-fixed-order/H125-LHC13-R04-mb-475-mt-1725-xmur100-xmuf100-log.fxd -xQ 0.0625 -out benchmarks-n3lo-smallR/H125-LHC13-R04-mb-475-mt-1725-xmur100-xmuf100-xQ0625-N3LO+NNLLb.R0-1.5.res -scheme b -order 2 -ptmax 500.01 -fixed_order 3 -small-r -loop-mass t+b -R0 1.5
# process = H    
# collider = pp   
# rts =  13000.000
# M   =    125.000
# muR =    125.000
# muF =    125.000
# Q   =      7.812
# p   =      5.000
# include_c1_squared =   F
# loop_mass  = t+b 
# alphas(MZ) =    0.11800
# alphas(M) =    0.11264
# alphas(muR) =    0.11264
# Rjet =      0.400
# order = NNLL
# pdf name and set = PDF4LHC15_nnlo_mc.LHgrid,    0
# matching scheme = b
# total cross sections [nb] at LO, NLOdiff, NNLOdiff, N3LOdiff =     0.012292    0.016994    0.010146    0.003834
#----------------------------------------------------------------------
# the lines that follow give the jet-veto efficiencies as a function of pt
#         pt            matched eff      resummed eff     fixed-order eff
   2.00000000E+001   3.98161964E-001   2.76393427E-001   3.97974970E-001
   2.50000000E+001   4.91840297E-001   2.76893410E-001   4.91794485E-001
   3.00000000E+001   5.70842173E-001   2.77039825E-001   5.70830727E-001
   3.50000000E+001   6.32375644E-001   2.77092759E-001   6.32372721E-001
   4.00000000E+001   6.82196202E-001   2.77114972E-001   6.82195687E-001
   4.50000000E+001   7.22903404E-001   2.77125385E-001   7.22903550E-001
   5.00000000E+001   7.57489373E-001   2.77130702E-001   7.57489684E-001
   5.50000000E+001   7.87062509E-001   2.77133608E-001   7.87062825E-001
   6.00000000E+001   8.12064154E-001   2.77135288E-001   8.12064423E-001
   6.50000000E+001   8.34389668E-001   2.77136304E-001   8.34389891E-001
   7.00000000E+001   8.53266019E-001   2.77136944E-001   8.53266196E-001
   7.50000000E+001   8.68915597E-001   2.77137360E-001   8.68915734E-001
   8.00000000E+001   8.82724731E-001   2.77137638E-001   8.82724838E-001
   8.50000000E+001   8.95173652E-001   2.77137829E-001   8.95173737E-001
   9.00000000E+001   9.05851058E-001   2.77137964E-001   9.05851124E-001
   9.50000000E+001   9.15604272E-001   2.77138060E-001   9.15604325E-001
   1.00000000E+002   9.23755279E-001   2.77138130E-001   9.23755321E-001
   1.05000000E+002   9.31095283E-001   2.77138182E-001   9.31095317E-001
   1.10000000E+002   9.37676024E-001   2.77138221E-001   9.37676052E-001
   1.15000000E+002   9.43589142E-001   2.77138250E-001   9.43589165E-001
   1.20000000E+002   9.48691516E-001   2.77138273E-001   9.48691534E-001
   1.25000000E+002   9.53165316E-001   2.77138291E-001   9.53165332E-001
   1.30000000E+002   9.57610769E-001   2.77138305E-001   9.57610782E-001
   1.35000000E+002   9.61527648E-001   2.77138316E-001   9.61527659E-001
   1.40000000E+002   9.64811159E-001   2.77138325E-001   9.64811168E-001
   1.45000000E+002   9.67960461E-001   2.77138332E-001   9.67960469E-001
   1.50000000E+002   9.70629437E-001   2.77138338E-001   9.70629444E-001
   1.55000000E+002   9.73496615E-001   2.77138343E-001   9.73496621E-001
   1.60000000E+002   9.75439362E-001   2.77138347E-001   9.75439366E-001
   1.65000000E+002   9.77532912E-001   2.77138350E-001   9.77532916E-001
   1.70000000E+002   9.79362101E-001   2.77138353E-001   9.79362104E-001
   1.75000000E+002   9.81142532E-001   2.77138355E-001   9.81142536E-001
   1.80000000E+002   9.82765599E-001   2.77138357E-001   9.82765601E-001
   1.85000000E+002   9.84232454E-001   2.77138358E-001   9.84232456E-001
   1.90000000E+002   9.85259942E-001   2.77138360E-001   9.85259944E-001
   1.95000000E+002   9.86580534E-001   2.77138361E-001   9.86580536E-001
   2.00000000E+002   9.87701530E-001   2.77138362E-001   9.87701531E-001
   2.05000000E+002   9.88662838E-001   2.77138363E-001   9.88662839E-001
   2.10000000E+002   9.89531243E-001   2.77138364E-001   9.89531244E-001
   2.15000000E+002   9.90479729E-001   2.77138364E-001   9.90479731E-001
   2.20000000E+002   9.91173489E-001   2.77138365E-001   9.91173490E-001
   2.25000000E+002   9.91902036E-001   2.77138365E-001   9.91902037E-001
   2.30000000E+002   9.92578308E-001   2.77138366E-001   9.92578309E-001
   2.35000000E+002   9.93202486E-001   2.77138366E-001   9.93202487E-001
   2.40000000E+002   9.93628139E-001   2.77138366E-001   9.93628140E-001
   2.45000000E+002   9.94199651E-001   2.77138367E-001   9.94199651E-001
