# ./jetvheto -in n3lo-fixed-order/H125-LHC13-R04-heft-xmur050-xmuf100-log.fxd -xQ 0.50 -out benchmarks-n3lo-smallR/H125-LHC13-R04-heft-xmur050-xmuf100-xQ050-N3LO+NNLLb.R0-1.0.res -scheme b -order 2 -ptmax 500.01 -fixed_order 3 -small-r -R0 1.0
# process = H    
# collider = pp   
# rts =  13000.000
# M   =    125.000
# muR =     62.500
# muF =    125.000
# Q   =     62.500
# p   =      5.000
# include_c1_squared =   F
# loop_mass  = none
# alphas(MZ) =    0.11800
# alphas(M) =    0.11264
# alphas(muR) =    0.12516
# Rjet =      0.400
# order = NNLL
# pdf name and set = PDF4LHC15_nnlo_mc.LHgrid,    0
# matching scheme = b
# total cross sections [nb] at LO, NLOdiff, NNLOdiff, N3LOdiff =     0.015984    0.019551    0.008553    0.000949
#----------------------------------------------------------------------
# the lines that follow give the jet-veto efficiencies as a function of pt
#         pt            matched eff      resummed eff     fixed-order eff
   2.00000000E+001   4.51830119E-001   5.11731613E-001   4.30143720E-001
   2.50000000E+001   5.35875573E-001   5.87715473E-001   5.18147973E-001
   3.00000000E+001   6.09214244E-001   6.40796889E-001   5.95579410E-001
   3.50000000E+001   6.65587383E-001   6.77408643E-001   6.54547090E-001
   4.00000000E+001   7.11105287E-001   7.02142504E-001   7.02161820E-001
   4.50000000E+001   7.47766321E-001   7.18371135E-001   7.40590338E-001
   5.00000000E+001   7.79083447E-001   7.28640299E-001   7.73417912E-001
   5.50000000E+001   8.06094071E-001   7.34884249E-001   8.01677467E-001
   6.00000000E+001   8.28687188E-001   7.38537919E-001   8.25267498E-001
   6.50000000E+001   8.49400689E-001   7.40608389E-001   8.46767154E-001
   7.00000000E+001   8.66688251E-001   7.41754810E-001   8.64663190E-001
   7.50000000E+001   8.80654437E-001   7.42380983E-001   8.79095795E-001
   8.00000000E+001   8.92988712E-001   7.42721186E-001   8.91784120E-001
   8.50000000E+001   9.04419288E-001   7.42906073E-001   9.03482987E-001
   9.00000000E+001   9.13983854E-001   7.43006926E-001   9.13251039E-001
   9.50000000E+001   9.22977726E-001   7.43062190E-001   9.22399687E-001
   1.00000000E+002   9.30205625E-001   7.43092559E-001   9.29746499E-001
   1.05000000E+002   9.36733122E-001   7.43109227E-001   9.36365528E-001
   1.10000000E+002   9.42705169E-001   7.43118294E-001   9.42408604E-001
   1.15000000E+002   9.48032097E-001   7.43123118E-001   9.47791016E-001
   1.20000000E+002   9.52602744E-001   7.43125569E-001   9.52405455E-001
   1.25000000E+002   9.56443530E-001   7.43126694E-001   9.56280992E-001
   1.30000000E+002   9.60556787E-001   7.43127088E-001   9.60421917E-001
   1.35000000E+002   9.64120238E-001   7.43127088E-001   9.64007650E-001
   1.40000000E+002   9.66970644E-001   7.43126885E-001   9.66876177E-001
   1.45000000E+002   9.69780845E-001   7.43126589E-001   9.69701096E-001
   1.50000000E+002   9.72080564E-001   7.43126261E-001   9.72012931E-001
   1.55000000E+002   9.74799814E-001   7.43125933E-001   9.74742124E-001
   1.60000000E+002   9.76306136E-001   7.43125623E-001   9.76256750E-001
   1.65000000E+002   9.78155424E-001   7.43125338E-001   9.78112939E-001
   1.70000000E+002   9.79730146E-001   7.43125081E-001   9.79693446E-001
   1.75000000E+002   9.81350684E-001   7.43124852E-001   9.81318852E-001
   1.80000000E+002   9.82832154E-001   7.43124650E-001   9.82804438E-001
   1.85000000E+002   9.84158779E-001   7.43124472E-001   9.84134562E-001
   1.90000000E+002   9.84896073E-001   7.43124316E-001   9.84874852E-001
   1.95000000E+002   9.86138939E-001   7.43124179E-001   9.86120267E-001
   2.00000000E+002   9.87162382E-001   7.43124058E-001   9.87145908E-001
   2.05000000E+002   9.87991856E-001   7.43123953E-001   9.87977278E-001
   2.10000000E+002   9.88740851E-001   7.43123860E-001   9.88727914E-001
   2.15000000E+002   9.89678601E-001   7.43123779E-001   9.89667088E-001
   2.20000000E+002   9.90256730E-001   7.43123708E-001   9.90246459E-001
   2.25000000E+002   9.90934670E-001   7.43123645E-001   9.90925484E-001
   2.30000000E+002   9.91574100E-001   7.43123589E-001   9.91565864E-001
   2.35000000E+002   9.92168762E-001   7.43123540E-001   9.92161361E-001
   2.40000000E+002   9.92503430E-001   7.43123496E-001   9.92496766E-001
   2.45000000E+002   9.93073177E-001   7.43123457E-001   9.93067162E-001
