# ./jetvheto -in n3lo-fixed-order/H125-LHC13-R04-heft-xmur050-xmuf050-log.fxd -xQ 0.50 -out benchmarks-n3lo-smallR/H125-LHC13-R04-heft-xmur050-xmuf050-xQ050-N3LO+NNLLb.R0-2.0.res -scheme b -order 2 -ptmax 500.01 -fixed_order 3 -small-r -R0 2.0
# process = H    
# collider = pp   
# rts =  13000.000
# M   =    125.000
# muR =     62.500
# muF =     62.500
# Q   =     62.500
# p   =      5.000
# include_c1_squared =   F
# loop_mass  = none
# alphas(MZ) =    0.11800
# alphas(M) =    0.11264
# alphas(muR) =    0.12516
# Rjet =      0.400
# order = NNLL
# pdf name and set = PDF4LHC15_nnlo_mc.LHgrid,    0
# matching scheme = b
# total cross sections [nb] at LO, NLOdiff, NNLOdiff, N3LOdiff =     0.015055    0.019611    0.008998    0.001413
#----------------------------------------------------------------------
# the lines that follow give the jet-veto efficiencies as a function of pt
#         pt            matched eff      resummed eff     fixed-order eff
   2.00000000E+001   4.63310491E-001   5.13218531E-001   4.32272620E-001
   2.50000000E+001   5.45167493E-001   5.87134387E-001   5.20076688E-001
   3.00000000E+001   6.14715505E-001   6.39121317E-001   5.95188306E-001
   3.50000000E+001   6.70078570E-001   6.75250554E-001   6.54648121E-001
   4.00000000E+001   7.13189017E-001   6.99880447E-001   7.00880952E-001
   4.50000000E+001   7.50976427E-001   7.16206002E-001   7.41355940E-001
   5.00000000E+001   7.81287559E-001   7.26661157E-001   7.73800605E-001
   5.50000000E+001   8.07807459E-001   7.33117508E-001   8.02051238E-001
   6.00000000E+001   8.29580729E-001   7.36975014E-001   8.25176712E-001
   6.50000000E+001   8.49903591E-001   7.39221253E-001   8.46550538E-001
   7.00000000E+001   8.65670504E-001   7.40509927E-001   8.63110860E-001
   7.50000000E+001   8.79851593E-001   7.41246897E-001   8.77894218E-001
   8.00000000E+001   8.92726442E-001   7.41671483E-001   8.91221610E-001
   8.50000000E+001   9.04201572E-001   7.41919886E-001   9.03036791E-001
   9.00000000E+001   9.14391384E-001   7.42068448E-001   9.13482770E-001
   9.50000000E+001   9.22568069E-001   7.42159628E-001   9.21853677E-001
   1.00000000E+002   9.30334519E-001   7.42217164E-001   9.29768082E-001
   1.05000000E+002   9.36564391E-001   7.42254516E-001   9.36111694E-001
   1.10000000E+002   9.42325493E-001   7.42279450E-001   9.41960757E-001
   1.15000000E+002   9.47752306E-001   7.42296547E-001   9.47456202E-001
   1.20000000E+002   9.52656045E-001   7.42308567E-001   9.52413885E-001
   1.25000000E+002   9.56704623E-001   7.42317215E-001   9.56505189E-001
   1.30000000E+002   9.60247509E-001   7.42323571E-001   9.60082213E-001
   1.35000000E+002   9.63796834E-001   7.42328332E-001   9.63658956E-001
   1.40000000E+002   9.67012422E-001   7.42331959E-001   9.66896738E-001
   1.45000000E+002   9.69770853E-001   7.42334766E-001   9.69673261E-001
   1.50000000E+002   9.71925696E-001   7.42336968E-001   9.71842925E-001
   1.55000000E+002   9.74393596E-001   7.42338717E-001   9.74323047E-001
   1.60000000E+002   9.76629340E-001   7.42340121E-001   9.76568926E-001
   1.65000000E+002   9.77996207E-001   7.42341260E-001   9.77944247E-001
   1.70000000E+002   9.79777562E-001   7.42342192E-001   9.79732679E-001
   1.75000000E+002   9.81446651E-001   7.42342961E-001   9.81407724E-001
   1.80000000E+002   9.82732173E-001   7.42343600E-001   9.82698288E-001
   1.85000000E+002   9.83908541E-001   7.42344135E-001   9.83878937E-001
   1.90000000E+002   9.85123321E-001   7.42344585E-001   9.85097366E-001
   1.95000000E+002   9.86243432E-001   7.42344966E-001   9.86220604E-001
   2.00000000E+002   9.87243373E-001   7.42345290E-001   9.87223233E-001
   2.05000000E+002   9.88054478E-001   7.42345567E-001   9.88036656E-001
   2.10000000E+002   9.88877309E-001   7.42345805E-001   9.88861494E-001
   2.15000000E+002   9.89518350E-001   7.42346011E-001   9.89504277E-001
   2.20000000E+002   9.90420638E-001   7.42346189E-001   9.90408081E-001
   2.25000000E+002   9.90914023E-001   7.42346343E-001   9.90902794E-001
   2.30000000E+002   9.91512288E-001   7.42346478E-001   9.91502219E-001
   2.35000000E+002   9.91970315E-001   7.42346596E-001   9.91961268E-001
   2.40000000E+002   9.92462196E-001   7.42346700E-001   9.92454049E-001
   2.45000000E+002   9.93031507E-001   7.42346791E-001   9.93024154E-001
