# ./jetvheto -in n3lo-fixed-order/H125-LHC13-R04-heft-xmur100-xmuf100-log.fxd -xQ 0.75 -out benchmarks-n3lo-smallR/H125-LHC13-R04-heft-xmur100-xmuf100-xQ075-NNLO+NNLLa.res -scheme a -order 2 -ptmax 500.01 -fixed_order 2
# process = H    
# collider = pp   
# rts =  13000.000
# M   =    125.000
# muR =    125.000
# muF =    125.000
# Q   =     93.750
# p   =      5.000
# include_c1_squared =   F
# loop_mass  = none
# alphas(MZ) =    0.11800
# alphas(M) =    0.11264
# alphas(muR) =    0.11264
# Rjet =      0.400
# order = NNLL
# pdf name and set = PDF4LHC15_nnlo_mc.LHgrid,    0
# matching scheme = a
# total cross sections [nb] at LO, NLOdiff, NNLOdiff, N3LOdiff =     0.012945    0.016716    0.010146    0.003834
#----------------------------------------------------------------------
# the lines that follow give the jet-veto efficiencies as a function of pt
#         pt            matched eff      resummed eff     fixed-order eff
   2.00000000E+001   4.98474335E-001   5.38212874E-001   5.03121755E-001
   2.50000000E+001   5.90133680E-001   6.24368510E-001   5.84489186E-001
   3.00000000E+001   6.61465189E-001   6.85635450E-001   6.47024325E-001
   3.50000000E+001   7.17363288E-001   7.28865450E-001   6.96432698E-001
   4.00000000E+001   7.61711416E-001   7.58953812E-001   7.36537087E-001
   4.50000000E+001   7.97002628E-001   7.79394390E-001   7.69498888E-001
   5.00000000E+001   8.25342151E-001   7.92699727E-001   7.97057559E-001
   5.50000000E+001   8.48161869E-001   8.00733426E-001   8.20296043E-001
   6.00000000E+001   8.66747297E-001   8.04910474E-001   8.40179538E-001
   6.50000000E+001   8.81981328E-001   8.06330318E-001   8.57311575E-001
   7.00000000E+001   8.94474184E-001   8.05856174E-001   8.72069843E-001
   7.50000000E+001   9.04927833E-001   8.04163115E-001   8.84956099E-001
   8.00000000E+001   9.13762452E-001   8.01771480E-001   8.96237121E-001
   8.50000000E+001   9.21280653E-001   7.99067465E-001   9.06102675E-001
   9.00000000E+001   9.27891379E-001   7.96322368E-001   9.14880120E-001
   9.50000000E+001   9.33669127E-001   7.93710894E-001   9.22604114E-001
   1.00000000E+002   9.38830410E-001   7.91332260E-001   9.29473021E-001
   1.05000000E+002   9.43488401E-001   7.89230654E-001   9.35603161E-001
   1.10000000E+002   9.47685561E-001   7.87413427E-001   9.41053390E-001
   1.15000000E+002   9.51552553E-001   7.85865763E-001   9.45975962E-001
   1.20000000E+002   9.55073331E-001   7.84561179E-001   9.50380922E-001
   1.25000000E+002   9.58309152E-001   7.83468816E-001   9.54354081E-001
   1.30000000E+002   9.61275252E-001   7.82557724E-001   9.57933958E-001
   1.35000000E+002   9.64026695E-001   7.81799212E-001   9.61195880E-001
   1.40000000E+002   9.66515865E-001   7.81167890E-001   9.64110237E-001
   1.45000000E+002   9.68862399E-001   7.80641959E-001   9.66811003E-001
   1.50000000E+002   9.70971856E-001   7.80203057E-001   9.69216654E-001
   1.55000000E+002   9.72932329E-001   7.79835918E-001   9.71425199E-001
   1.60000000E+002   9.74757828E-001   7.79527952E-001   9.73459094E-001
   1.65000000E+002   9.76424886E-001   7.79268825E-001   9.75301855E-001
   1.70000000E+002   9.77985073E-001   7.79050081E-001   9.77010596E-001
   1.75000000E+002   9.79402718E-001   7.78864804E-001   9.78554343E-001
   1.80000000E+002   9.80731730E-001   7.78707335E-001   9.79990696E-001
   1.85000000E+002   9.81945735E-001   7.78573045E-001   9.81296426E-001
   1.90000000E+002   9.83074620E-001   7.78458130E-001   9.82503927E-001
   1.95000000E+002   9.84141389E-001   7.78359468E-001   9.83638287E-001
   2.00000000E+002   9.85119980E-001   7.78274481E-001   9.84675207E-001
   2.05000000E+002   9.86033384E-001   7.78201040E-001   9.85639085E-001
   2.10000000E+002   9.86873493E-001   7.78137378E-001   9.86523019E-001
   2.15000000E+002   9.87643292E-001   7.78082027E-001   9.87330981E-001
   2.20000000E+002   9.88371216E-001   7.78033759E-001   9.88092219E-001
   2.25000000E+002   9.89044809E-001   7.77991549E-001   9.88794983E-001
   2.30000000E+002   9.89675278E-001   7.77954536E-001   9.89451061E-001
   2.35000000E+002   9.90277487E-001   7.77921992E-001   9.90075806E-001
   2.40000000E+002   9.90822644E-001   7.77893306E-001   9.90640855E-001
   2.45000000E+002   9.91339151E-001   7.77867956E-001   9.91174955E-001
