# ./jetvheto -in n3lo-fixed-order/H125-LHC13-R04-mb-475-mt-1725-xmur100-xmuf050-log.fxd -xQ 0.25 -out benchmarks-n3lo-smallR/H125-LHC13-R04-mb-475-mt-1725-xmur100-xmuf050-xQ025-NNLO+NNLLb.res -scheme b -order 2 -ptmax 500.01 -fixed_order 2 -loop-mass t+b
# process = H    
# collider = pp   
# rts =  13000.000
# M   =    125.000
# muR =    125.000
# muF =     62.500
# Q   =     31.250
# p   =      5.000
# include_c1_squared =   F
# loop_mass  = t+b 
# alphas(MZ) =    0.11800
# alphas(M) =    0.11264
# alphas(muR) =    0.11264
# Rjet =      0.400
# order = NNLL
# pdf name and set = PDF4LHC15_nnlo_mc.LHgrid,    0
# matching scheme = b
# total cross sections [nb] at LO, NLOdiff, NNLOdiff, N3LOdiff =     0.011575    0.016866    0.010424    0.004163
#----------------------------------------------------------------------
# the lines that follow give the jet-veto efficiencies as a function of pt
#         pt            matched eff      resummed eff     fixed-order eff
   2.00000000E+001   3.58311235E-001   5.09007862E-001   3.01797175E-001
   2.50000000E+001   4.41127360E-001   5.80773488E-001   4.12444386E-001
   3.00000000E+001   5.12534221E-001   6.23292551E-001   4.98409551E-001
   3.50000000E+001   5.74082874E-001   6.46551750E-001   5.67166648E-001
   4.00000000E+001   6.26625123E-001   6.58808840E-001   6.23168191E-001
   4.50000000E+001   6.71723619E-001   6.65298310E-001   6.69933084E-001
   5.00000000E+001   7.10244127E-001   6.68836880E-001   7.09277749E-001
   5.50000000E+001   7.43175959E-001   6.70843016E-001   7.42632321E-001
   6.00000000E+001   7.71576210E-001   6.72026897E-001   7.71258431E-001
   6.50000000E+001   7.96139394E-001   6.72752394E-001   7.95947126E-001
   7.00000000E+001   8.17631343E-001   6.73212447E-001   8.17511462E-001
   7.50000000E+001   8.36304167E-001   6.73513217E-001   8.36227208E-001
   8.00000000E+001   8.52784466E-001   6.73715263E-001   8.52733853E-001
   8.50000000E+001   8.67389360E-001   6.73854304E-001   8.67355329E-001
   9.00000000E+001   8.80211527E-001   6.73952071E-001   8.80188173E-001
   9.50000000E+001   8.91559424E-001   6.74022154E-001   8.91543074E-001
   1.00000000E+002   9.01723499E-001   6.74073271E-001   9.01711868E-001
   1.05000000E+002   9.10796771E-001   6.74111143E-001   9.10788355E-001
   1.10000000E+002   9.18865037E-001   6.74139603E-001   9.18858861E-001
   1.15000000E+002   9.26159465E-001   6.74161268E-001   9.26154870E-001
   1.20000000E+002   9.32694875E-001   6.74177958E-001   9.32691413E-001
   1.25000000E+002   9.38646483E-001   6.74190954E-001   9.38643846E-001
   1.30000000E+002   9.43961550E-001   6.74201177E-001   9.43959515E-001
   1.35000000E+002   9.48770911E-001   6.74209292E-001   9.48769326E-001
   1.40000000E+002   9.53164939E-001   6.74215789E-001   9.53163692E-001
   1.45000000E+002   9.57138694E-001   6.74221032E-001   9.57137703E-001
   1.50000000E+002   9.60778823E-001   6.74225295E-001   9.60778030E-001
   1.55000000E+002   9.64085165E-001   6.74228785E-001   9.64084524E-001
   1.60000000E+002   9.67091260E-001   6.74231661E-001   9.67090738E-001
   1.65000000E+002   9.69818697E-001   6.74234045E-001   9.69818268E-001
   1.70000000E+002   9.72303460E-001   6.74236032E-001   9.72303105E-001
   1.75000000E+002   9.74607234E-001   6.74237698E-001   9.74606939E-001
   1.80000000E+002   9.76680847E-001   6.74239101E-001   9.76680599E-001
   1.85000000E+002   9.78610745E-001   6.74240288E-001   9.78610537E-001
   1.90000000E+002   9.80369117E-001   6.74241298E-001   9.80368941E-001
   1.95000000E+002   9.81978389E-001   6.74242160E-001   9.81978238E-001
   2.00000000E+002   9.83449281E-001   6.74242900E-001   9.83449152E-001
   2.05000000E+002   9.84806644E-001   6.74243536E-001   9.84806533E-001
   2.10000000E+002   9.86027590E-001   6.74244086E-001   9.86027493E-001
   2.15000000E+002   9.87184471E-001   6.74244562E-001   9.87184387E-001
   2.20000000E+002   9.88248544E-001   6.74244976E-001   9.88248471E-001
   2.25000000E+002   9.89196021E-001   6.74245338E-001   9.89195956E-001
   2.30000000E+002   9.90107397E-001   6.74245654E-001   9.90107340E-001
   2.35000000E+002   9.90914335E-001   6.74245932E-001   9.90914285E-001
   2.40000000E+002   9.91671072E-001   6.74246176E-001   9.91671028E-001
   2.45000000E+002   9.92353649E-001   6.74246392E-001   9.92353610E-001
