# ./jetvheto -in n3lo-fixed-order/H125-LHC13-R04-mb-475-mt-1725-xmur100-xmuf100-log.fxd -xQ 0.125 -out benchmarks-n3lo-smallR/H125-LHC13-R04-mb-475-mt-1725-xmur100-xmuf100-xQ0125-N3LO+NNLLb.R0-0.5.res -scheme b -order 2 -ptmax 500.01 -fixed_order 3 -small-r -loop-mass t+b -R0 0.5
# process = H    
# collider = pp   
# rts =  13000.000
# M   =    125.000
# muR =    125.000
# muF =    125.000
# Q   =     15.625
# p   =      5.000
# include_c1_squared =   F
# loop_mass  = t+b 
# alphas(MZ) =    0.11800
# alphas(M) =    0.11264
# alphas(muR) =    0.11264
# Rjet =      0.400
# order = NNLL
# pdf name and set = PDF4LHC15_nnlo_mc.LHgrid,    0
# matching scheme = b
# total cross sections [nb] at LO, NLOdiff, NNLOdiff, N3LOdiff =     0.012292    0.016994    0.010146    0.003834
#----------------------------------------------------------------------
# the lines that follow give the jet-veto efficiencies as a function of pt
#         pt            matched eff      resummed eff     fixed-order eff
   2.00000000E+001   4.01374957E-001   4.98946468E-001   3.97974970E-001
   2.50000000E+001   4.92764542E-001   5.14145597E-001   4.91794485E-001
   3.00000000E+001   5.71112528E-001   5.19089322E-001   5.70830727E-001
   3.50000000E+001   6.32463940E-001   5.20940672E-001   6.32372721E-001
   4.00000000E+001   6.82225783E-001   5.21728207E-001   6.82195687E-001
   4.50000000E+001   7.22912890E-001   5.22099594E-001   7.22903550E-001
   5.00000000E+001   7.57491316E-001   5.22289792E-001   7.57489684E-001
   5.50000000E+001   7.87061687E-001   5.22393920E-001   7.87062825E-001
   6.00000000E+001   8.12062566E-001   5.22454142E-001   8.12064423E-001
   6.50000000E+001   8.34387899E-001   5.22490602E-001   8.34389891E-001
   7.00000000E+001   8.53264413E-001   5.22513549E-001   8.53266196E-001
   7.50000000E+001   8.68914270E-001   5.22528479E-001   8.68915734E-001
   8.00000000E+001   8.82723648E-001   5.22538476E-001   8.82724838E-001
   8.50000000E+001   8.95172762E-001   5.22545341E-001   8.95173737E-001
   9.00000000E+001   9.05850338E-001   5.22550161E-001   9.05851124E-001
   9.50000000E+001   9.15603682E-001   5.22553612E-001   9.15604325E-001
   1.00000000E+002   9.23754802E-001   5.22556127E-001   9.23755321E-001
   1.05000000E+002   9.31094895E-001   5.22557990E-001   9.31095317E-001
   1.10000000E+002   9.37675705E-001   5.22559389E-001   9.37676052E-001
   1.15000000E+002   9.43588879E-001   5.22560453E-001   9.43589165E-001
   1.20000000E+002   9.48691298E-001   5.22561273E-001   9.48691534E-001
   1.25000000E+002   9.53165136E-001   5.22561912E-001   9.53165332E-001
   1.30000000E+002   9.57610618E-001   5.22562414E-001   9.57610782E-001
   1.35000000E+002   9.61527520E-001   5.22562812E-001   9.61527659E-001
   1.40000000E+002   9.64811051E-001   5.22563131E-001   9.64811168E-001
   1.45000000E+002   9.67960370E-001   5.22563389E-001   9.67960469E-001
   1.50000000E+002   9.70629360E-001   5.22563598E-001   9.70629444E-001
   1.55000000E+002   9.73496548E-001   5.22563770E-001   9.73496621E-001
   1.60000000E+002   9.75439304E-001   5.22563911E-001   9.75439366E-001
   1.65000000E+002   9.77532863E-001   5.22564028E-001   9.77532916E-001
   1.70000000E+002   9.79362058E-001   5.22564125E-001   9.79362104E-001
   1.75000000E+002   9.81142495E-001   5.22564207E-001   9.81142536E-001
   1.80000000E+002   9.82765566E-001   5.22564276E-001   9.82765601E-001
   1.85000000E+002   9.84232426E-001   5.22564334E-001   9.84232456E-001
   1.90000000E+002   9.85259917E-001   5.22564384E-001   9.85259944E-001
   1.95000000E+002   9.86580512E-001   5.22564426E-001   9.86580536E-001
   2.00000000E+002   9.87701510E-001   5.22564462E-001   9.87701531E-001
   2.05000000E+002   9.88662820E-001   5.22564494E-001   9.88662839E-001
   2.10000000E+002   9.89531228E-001   5.22564521E-001   9.89531244E-001
   2.15000000E+002   9.90479716E-001   5.22564544E-001   9.90479731E-001
   2.20000000E+002   9.91173477E-001   5.22564564E-001   9.91173490E-001
   2.25000000E+002   9.91902026E-001   5.22564582E-001   9.91902037E-001
   2.30000000E+002   9.92578298E-001   5.22564598E-001   9.92578309E-001
   2.35000000E+002   9.93202478E-001   5.22564611E-001   9.93202487E-001
   2.40000000E+002   9.93628132E-001   5.22564623E-001   9.93628140E-001
   2.45000000E+002   9.94199644E-001   5.22564634E-001   9.94199651E-001
