# ./jetvheto -in n3lo-fixed-order/H125-LHC13-R04-mb-475-mt-1725-xmur200-xmuf200-log.fxd -xQ 0.25 -out benchmarks-n3lo-smallR/H125-LHC13-R04-mb-475-mt-1725-xmur200-xmuf200-xQ025-N3LO+NNLLb.R0-2.0.res -scheme b -order 2 -ptmax 500.01 -fixed_order 3 -small-r -loop-mass t+b -R0 2.0
# process = H    
# collider = pp   
# rts =  13000.000
# M   =    125.000
# muR =    250.000
# muF =    250.000
# Q   =     31.250
# p   =      5.000
# include_c1_squared =   F
# loop_mass  = t+b 
# alphas(MZ) =    0.11800
# alphas(M) =    0.11264
# alphas(muR) =    0.10244
# Rjet =      0.400
# order = NNLL
# pdf name and set = PDF4LHC15_nnlo_mc.LHgrid,    0
# matching scheme = b
# total cross sections [nb] at LO, NLOdiff, NNLOdiff, N3LOdiff =     0.010658    0.014649    0.010464    0.005358
#----------------------------------------------------------------------
# the lines that follow give the jet-veto efficiencies as a function of pt
#         pt            matched eff      resummed eff     fixed-order eff
   2.00000000E+001   4.17307562E-001   5.67789416E-001   3.93395559E-001
   2.50000000E+001   5.03956277E-001   6.38936194E-001   4.92532833E-001
   3.00000000E+001   5.73690608E-001   6.80423020E-001   5.68240268E-001
   3.50000000E+001   6.32540875E-001   7.02867685E-001   6.29965429E-001
   4.00000000E+001   6.81479465E-001   7.14613696E-001   6.80230765E-001
   4.50000000E+001   7.21454463E-001   7.20807597E-001   7.20815417E-001
   5.00000000E+001   7.56796067E-001   7.24177174E-001   7.56465253E-001
   5.50000000E+001   7.85655127E-001   7.26084959E-001   7.85472917E-001
   6.00000000E+001   8.10352273E-001   7.27209925E-001   8.10248405E-001
   6.50000000E+001   8.31401106E-001   7.27898994E-001   8.31339503E-001
   7.00000000E+001   8.50491328E-001   7.28335817E-001   8.50454712E-001
   7.50000000E+001   8.66319901E-001   7.28621347E-001   8.66297011E-001
   8.00000000E+001   8.80120319E-001   7.28813130E-001   8.80105627E-001
   8.50000000E+001   8.92411739E-001   7.28945098E-001   8.92402216E-001
   9.00000000E+001   9.02926887E-001   7.29037886E-001   9.02920500E-001
   9.50000000E+001   9.12753646E-001   7.29104397E-001   9.12749431E-001
   1.00000000E+002   9.21058801E-001   7.29152906E-001   9.21055914E-001
   1.05000000E+002   9.28381643E-001   7.29188846E-001   9.28379619E-001
   1.10000000E+002   9.34732544E-001   7.29215853E-001   9.34731087E-001
   1.15000000E+002   9.40751515E-001   7.29236413E-001   9.40750487E-001
   1.20000000E+002   9.46204566E-001   7.29252250E-001   9.46203839E-001
   1.25000000E+002   9.50748573E-001   7.29264583E-001   9.50748033E-001
   1.30000000E+002   9.55071796E-001   7.29274283E-001   9.55071404E-001
   1.35000000E+002   9.58784591E-001   7.29281984E-001   9.58784295E-001
   1.40000000E+002   9.62494314E-001   7.29288149E-001   9.62494103E-001
   1.45000000E+002   9.65458579E-001   7.29293125E-001   9.65458416E-001
   1.50000000E+002   9.68365963E-001   7.29297170E-001   9.68365842E-001
   1.55000000E+002   9.70956438E-001   7.29300482E-001   9.70956346E-001
   1.60000000E+002   9.73228681E-001   7.29303211E-001   9.73228609E-001
   1.65000000E+002   9.75208643E-001   7.29305473E-001   9.75208585E-001
   1.70000000E+002   9.77297151E-001   7.29307358E-001   9.77297108E-001
   1.75000000E+002   9.79003782E-001   7.29308939E-001   9.79003749E-001
   1.80000000E+002   9.80846607E-001   7.29310270E-001   9.80846583E-001
   1.85000000E+002   9.82182436E-001   7.29311397E-001   9.82182417E-001
   1.90000000E+002   9.83533520E-001   7.29312355E-001   9.83533505E-001
   1.95000000E+002   9.84739376E-001   7.29313174E-001   9.84739364E-001
   2.00000000E+002   9.86049924E-001   7.29313875E-001   9.86049915E-001
   2.05000000E+002   9.86969437E-001   7.29314479E-001   9.86969430E-001
   2.10000000E+002   9.87845020E-001   7.29315000E-001   9.87845014E-001
   2.15000000E+002   9.88780912E-001   7.29315453E-001   9.88780907E-001
   2.20000000E+002   9.89647150E-001   7.29315846E-001   9.89647147E-001
   2.25000000E+002   9.90326864E-001   7.29316189E-001   9.90326861E-001
   2.30000000E+002   9.90979913E-001   7.29316489E-001   9.90979911E-001
   2.35000000E+002   9.91654061E-001   7.29316752E-001   9.91654060E-001
   2.40000000E+002   9.92240427E-001   7.29316984E-001   9.92240426E-001
   2.45000000E+002   9.92807638E-001   7.29317189E-001   9.92807637E-001
