# ./jetvheto -in n3lo-fixed-order/H125-LHC13-R04-mb-0-mt-1725-xmur025-xmuf025-log.fxd -xQ 0.0625 -out benchmarks-n3lo-smallR/H125-LHC13-R04-mb-0-mt-1725-xmur025-xmuf025-xQ0625-N3LO+NNLLb.R0-2.0.res -scheme b -order 2 -ptmax 500.01 -small-r -fixed_order 3 -loop-mass t -R0 2.0
# process = H    
# collider = pp   
# rts =  13000.000
# M   =    125.000
# muR =     31.250
# muF =     31.250
# Q   =      7.812
# p   =      5.000
# include_c1_squared =   F
# loop_mass  = t   
# alphas(MZ) =    0.11800
# alphas(M) =    0.11264
# alphas(muR) =    0.14091
# Rjet =      0.400
# order = NNLL
# pdf name and set = PDF4LHC15_nnlo_mc.LHgrid,    0
# matching scheme = b
# total cross sections [nb] at LO, NLOdiff, NNLOdiff, N3LOdiff =     0.018140    0.025356    0.006043   -0.002471
#----------------------------------------------------------------------
# the lines that follow give the jet-veto efficiencies as a function of pt
#         pt            matched eff      resummed eff     fixed-order eff
   2.00000000E+001   4.87040530E-001   4.50950809E-002   4.87197444E-001
   2.50000000E+001   5.72758998E-001   4.52559535E-002   5.72808377E-001
   3.00000000E+001   6.40014621E-001   4.53030926E-002   6.40033654E-001
   3.50000000E+001   6.93659373E-001   4.53201384E-002   6.93667740E-001
   4.00000000E+001   7.38260865E-001   4.53272918E-002   7.38265029E-001
   4.50000000E+001   7.75883268E-001   4.53306452E-002   7.75885549E-001
   5.00000000E+001   8.06966222E-001   4.53323576E-002   8.06967537E-001
   5.50000000E+001   8.34513826E-001   4.53332936E-002   8.34514649E-001
   6.00000000E+001   8.56658172E-001   4.53338346E-002   8.56658691E-001
   6.50000000E+001   8.73491339E-001   4.53341619E-002   8.73491663E-001
   7.00000000E+001   8.90085350E-001   4.53343678E-002   8.90085568E-001
   7.50000000E+001   9.04105346E-001   4.53345018E-002   9.04105497E-001
   8.00000000E+001   9.15225362E-001   4.53345915E-002   9.15225465E-001
   8.50000000E+001   9.25757960E-001   4.53346531E-002   9.25758034E-001
   9.00000000E+001   9.34943698E-001   4.53346963E-002   9.34943752E-001
   9.50000000E+001   9.40852590E-001   4.53347273E-002   9.40852628E-001
   1.00000000E+002   9.48575648E-001   4.53347498E-002   9.48575677E-001
   1.05000000E+002   9.53814218E-001   4.53347666E-002   9.53814240E-001
   1.10000000E+002   9.59772646E-001   4.53347791E-002   9.59772663E-001
   1.15000000E+002   9.64718587E-001   4.53347887E-002   9.64718601E-001
   1.20000000E+002   9.68214402E-001   4.53347960E-002   9.68214412E-001
   1.25000000E+002   9.71132757E-001   4.53348017E-002   9.71132765E-001
   1.30000000E+002   9.74519588E-001   4.53348062E-002   9.74519594E-001
   1.35000000E+002   9.77098517E-001   4.53348098E-002   9.77098521E-001
   1.40000000E+002   9.79639813E-001   4.53348127E-002   9.79639817E-001
   1.45000000E+002   9.81972036E-001   4.53348150E-002   9.81972039E-001
   1.50000000E+002   9.83864018E-001   4.53348169E-002   9.83864021E-001
   1.55000000E+002   9.85618932E-001   4.53348184E-002   9.85618934E-001
   1.60000000E+002   9.87700870E-001   4.53348197E-002   9.87700872E-001
   1.65000000E+002   9.88954554E-001   4.53348207E-002   9.88954556E-001
   1.70000000E+002   9.89883086E-001   4.53348216E-002   9.89883087E-001
   1.75000000E+002   9.91392402E-001   4.53348223E-002   9.91392403E-001
   1.80000000E+002   9.92130964E-001   4.53348229E-002   9.92130965E-001
   1.85000000E+002   9.93252406E-001   4.53348235E-002   9.93252407E-001
   1.90000000E+002   9.93994945E-001   4.53348239E-002   9.93994946E-001
   1.95000000E+002   9.94937393E-001   4.53348243E-002   9.94937393E-001
   2.00000000E+002   9.95433135E-001   4.53348246E-002   9.95433136E-001
   2.05000000E+002   9.95968994E-001   4.53348249E-002   9.95968995E-001
   2.10000000E+002   9.96450497E-001   4.53348251E-002   9.96450497E-001
   2.15000000E+002   9.97142398E-001   4.53348253E-002   9.97142399E-001
   2.20000000E+002   9.97476149E-001   4.53348255E-002   9.97476149E-001
   2.25000000E+002   9.98020700E-001   4.53348257E-002   9.98020700E-001
   2.30000000E+002   9.98314264E-001   4.53348258E-002   9.98314264E-001
   2.35000000E+002   9.98428204E-001   4.53348259E-002   9.98428204E-001
   2.40000000E+002   9.98835691E-001   4.53348261E-002   9.98835691E-001
   2.45000000E+002   9.99142145E-001   4.53348261E-002   9.99142145E-001
