# ./jetvheto -in n3lo-fixed-order/H125-LHC13-R04-mb-475-mt-1725-xmur050-xmuf050-log.fxd -xQ 0.5 -out benchmarks-n3lo-smallR/H125-LHC13-R04-mb-475-mt-1725-xmur050-xmuf050-xQ050-N3LO+NNLLb.R0-0.5.res -scheme b -order 2 -ptmax 500.01 -fixed_order 3 -small-r -loop-mass t+b -R0 0.5
# process = H    
# collider = pp   
# rts =  13000.000
# M   =    125.000
# muR =     62.500
# muF =     62.500
# Q   =     62.500
# p   =      5.000
# include_c1_squared =   F
# loop_mass  = t+b 
# alphas(MZ) =    0.11800
# alphas(M) =    0.11264
# alphas(muR) =    0.12516
# Rjet =      0.400
# order = NNLL
# pdf name and set = PDF4LHC15_nnlo_mc.LHgrid,    0
# matching scheme = b
# total cross sections [nb] at LO, NLOdiff, NNLOdiff, N3LOdiff =     0.014147    0.020254    0.008998    0.001413
#----------------------------------------------------------------------
# the lines that follow give the jet-veto efficiencies as a function of pt
#         pt            matched eff      resummed eff     fixed-order eff
   2.00000000E+001   4.36665684E-001   4.73207141E-001   4.22880362E-001
   2.50000000E+001   5.23382884E-001   5.48704808E-001   5.10871357E-001
   3.00000000E+001   5.96947245E-001   6.02094849E-001   5.86554172E-001
   3.50000000E+001   6.55851123E-001   6.39386936E-001   6.46974526E-001
   4.00000000E+001   7.01705938E-001   6.64960300E-001   6.94053894E-001
   4.50000000E+001   7.41885060E-001   6.82043947E-001   7.35572065E-001
   5.00000000E+001   7.74129682E-001   6.93101653E-001   7.68984657E-001
   5.50000000E+001   8.02162699E-001   7.00029750E-001   7.98072300E-001
   6.00000000E+001   8.25271240E-001   7.04250042E-001   8.22057983E-001
   6.50000000E+001   8.46651747E-001   7.06770535E-001   8.44160448E-001
   7.00000000E+001   8.63328074E-001   7.08263674E-001   8.61397413E-001
   7.50000000E+001   8.78281672E-001   7.09151711E-001   8.76789719E-001
   8.00000000E+001   8.91847587E-001   7.09687477E-001   8.90691953E-001
   8.50000000E+001   9.03949709E-001   7.10017759E-001   9.03050366E-001
   9.00000000E+001   9.14600822E-001   7.10226863E-001   9.13896477E-001
   9.50000000E+001   9.23195153E-001   7.10363096E-001   9.22639584E-001
   1.00000000E+002   9.31365568E-001   7.10454427E-001   9.30924075E-001
   1.05000000E+002   9.37972461E-001   7.10517351E-001   9.37618957E-001
   1.10000000E+002   9.44006127E-001   7.10561815E-001   9.43720915E-001
   1.15000000E+002   9.49733847E-001   7.10593963E-001   9.49502090E-001
   1.20000000E+002   9.54868533E-001   7.10617689E-001   9.54678868E-001
   1.25000000E+002   9.59160121E-001   7.10635521E-001   9.59003817E-001
   1.30000000E+002   9.62893722E-001   7.10649143E-001   9.62764111E-001
   1.35000000E+002   9.66598599E-001   7.10659699E-001   9.66490458E-001
   1.40000000E+002   9.69971448E-001   7.10667984E-001   9.69880698E-001
   1.45000000E+002   9.72883929E-001   7.10674561E-001   9.72807360E-001
   1.50000000E+002   9.75167862E-001   7.10679836E-001   9.75102905E-001
   1.55000000E+002   9.77764131E-001   7.10684106E-001   9.77708768E-001
   1.60000000E+002   9.80086199E-001   7.10687590E-001   9.80038790E-001
   1.65000000E+002   9.81531392E-001   7.10690456E-001   9.81490611E-001
   1.70000000E+002   9.83359542E-001   7.10692829E-001   9.83324317E-001
   1.75000000E+002   9.85079842E-001   7.10694807E-001   9.85049293E-001
   1.80000000E+002   9.86394156E-001   7.10696466E-001   9.86367565E-001
   1.85000000E+002   9.87607191E-001   7.10697864E-001   9.87583960E-001
   1.90000000E+002   9.88840234E-001   7.10699048E-001   9.88819869E-001
   1.95000000E+002   9.89976142E-001   7.10700057E-001   9.89958231E-001
   2.00000000E+002   9.90977209E-001   7.10700919E-001   9.90961409E-001
   2.05000000E+002   9.91776707E-001   7.10701660E-001   9.91762726E-001
   2.10000000E+002   9.92573285E-001   7.10702298E-001   9.92560879E-001
   2.15000000E+002   9.93199207E-001   7.10702851E-001   9.93188169E-001
   2.20000000E+002   9.94082283E-001   7.10703331E-001   9.94072436E-001
   2.25000000E+002   9.94542864E-001   7.10703749E-001   9.94534058E-001
   2.30000000E+002   9.95102592E-001   7.10704115E-001   9.95094697E-001
   2.35000000E+002   9.95519621E-001   7.10704435E-001   9.95512527E-001
   2.40000000E+002   9.95967023E-001   7.10704717E-001   9.95960635E-001
   2.45000000E+002   9.96480322E-001   7.10704966E-001   9.96474558E-001
