# ./jetvheto -in n3lo-fixed-order/H125-LHC13-R04-mb-475-mt-1725-xmur200-xmuf100-log.fxd -xQ 0.5 -out benchmarks-n3lo-smallR/H125-LHC13-R04-mb-475-mt-1725-xmur200-xmuf100-xQ050-N3LO+NNLLb.R0-2.0.res -scheme b -order 2 -ptmax 500.01 -fixed_order 3 -small-r -loop-mass t+b -R0 2.0
# process = H    
# collider = pp   
# rts =  13000.000
# M   =    125.000
# muR =    250.000
# muF =    125.000
# Q   =     62.500
# p   =      5.000
# include_c1_squared =   F
# loop_mass  = t+b 
# alphas(MZ) =    0.11800
# alphas(M) =    0.11264
# alphas(muR) =    0.10244
# Rjet =      0.400
# order = NNLL
# pdf name and set = PDF4LHC15_nnlo_mc.LHgrid,    0
# matching scheme = b
# total cross sections [nb] at LO, NLOdiff, NNLOdiff, N3LOdiff =     0.010243    0.014468    0.010526    0.005600
#----------------------------------------------------------------------
# the lines that follow give the jet-veto efficiencies as a function of pt
#         pt            matched eff      resummed eff     fixed-order eff
   2.00000000E+001   4.23730906E-001   5.21393166E-001   3.89818525E-001
   2.50000000E+001   5.08744786E-001   6.03562658E-001   4.86093830E-001
   3.00000000E+001   5.80571848E-001   6.62185493E-001   5.64941031E-001
   3.50000000E+001   6.38337840E-001   7.03522960E-001   6.26766390E-001
   4.00000000E+001   6.85702521E-001   7.32157406E-001   6.76837357E-001
   4.50000000E+001   7.24812336E-001   7.51517358E-001   7.17902185E-001
   5.00000000E+001   7.58046474E-001   7.64234305E-001   7.52652485E-001
   5.50000000E+001   7.86449491E-001   7.72343768E-001   7.82254482E-001
   6.00000000E+001   8.10653396E-001   7.77387917E-001   8.07403331E-001
   6.50000000E+001   8.32130080E-001   7.80477242E-001   8.29625457E-001
   7.00000000E+001   8.50476238E-001   7.82362184E-001   8.48548309E-001
   7.50000000E+001   8.65963673E-001   7.83521226E-001   8.64477541E-001
   8.00000000E+001   8.79679375E-001   7.84246192E-001   8.78530213E-001
   8.50000000E+001   8.91969322E-001   7.84710216E-001   8.91076567E-001
   9.00000000E+001   9.02669454E-001   7.85015093E-001   9.01971116E-001
   9.50000000E+001   9.12358768E-001   7.85220848E-001   9.11808698E-001
   1.00000000E+002   9.20632975E-001   7.85363340E-001   9.20196285E-001
   1.05000000E+002   9.28089225E-001   7.85464415E-001   9.27739849E-001
   1.10000000E+002   9.34750620E-001   7.85537684E-001   9.34468996E-001
   1.15000000E+002   9.40762775E-001   7.85591838E-001   9.40534037E-001
   1.20000000E+002   9.45998471E-001   7.85632562E-001   9.45811365E-001
   1.25000000E+002   9.50660766E-001   7.85663658E-001   9.50506638E-001
   1.30000000E+002   9.55150151E-001   7.85687730E-001   9.55022375E-001
   1.35000000E+002   9.59146975E-001   7.85706591E-001   9.59040379E-001
   1.40000000E+002   9.62575873E-001   7.85721532E-001   9.62486427E-001
   1.45000000E+002   9.65825312E-001   7.85733485E-001   9.65749830E-001
   1.50000000E+002   9.68630141E-001   7.85743134E-001   9.68566114E-001
   1.55000000E+002   9.71503069E-001   7.85750986E-001   9.71448489E-001
   1.60000000E+002   9.73648166E-001   7.85757423E-001   9.73601413E-001
   1.65000000E+002   9.75832099E-001   7.85762738E-001   9.75791876E-001
   1.70000000E+002   9.77771753E-001   7.85767153E-001   9.77737000E-001
   1.75000000E+002   9.79614581E-001   7.85770843E-001   9.79584436E-001
   1.80000000E+002   9.81299646E-001   7.85773944E-001   9.81273397E-001
   1.85000000E+002   9.82829134E-001   7.85776563E-001   9.82806195E-001
   1.90000000E+002   9.84012194E-001   7.85778786E-001   9.83992078E-001
   1.95000000E+002   9.85367952E-001   7.85780682E-001   9.85350253E-001
   2.00000000E+002   9.86544245E-001   7.85782305E-001   9.86528625E-001
   2.05000000E+002   9.87581114E-001   7.85783700E-001   9.87567287E-001
   2.10000000E+002   9.88521784E-001   7.85784904E-001   9.88509511E-001
   2.15000000E+002   9.89485579E-001   7.85785947E-001   9.89474655E-001
   2.20000000E+002   9.90254433E-001   7.85786853E-001   9.90244684E-001
   2.25000000E+002   9.91023469E-001   7.85787643E-001   9.91014747E-001
   2.30000000E+002   9.91735801E-001   7.85788334E-001   9.91727980E-001
   2.35000000E+002   9.92395822E-001   7.85788941E-001   9.92388792E-001
   2.40000000E+002   9.92895451E-001   7.85789474E-001   9.92889118E-001
   2.45000000E+002   9.93485905E-001   7.85789945E-001   9.93480189E-001
