# ./jetvheto -in n3lo-fixed-order/H125-LHC13-R04-mb-0-mt-1725-xmur050-xmuf050-log.fxd -xQ 0.125 -out benchmarks-n3lo-smallR/H125-LHC13-R04-mb-0-mt-1725-xmur050-xmuf050-xQ0125-NNLO+NNLLa.R0-1.5.res -scheme a -order 2 -ptmax 500.01 -small-r -fixed_order 2 -loop-mass t -R0 1.5
# process = H    
# collider = pp   
# rts =  13000.000
# M   =    125.000
# muR =     62.500
# muF =     62.500
# Q   =     15.625
# p   =      5.000
# include_c1_squared =   F
# loop_mass  = t   
# alphas(MZ) =    0.11800
# alphas(M) =    0.11264
# alphas(muR) =    0.12516
# Rjet =      0.400
# order = NNLL
# pdf name and set = PDF4LHC15_nnlo_mc.LHgrid,    0
# matching scheme = a
# total cross sections [nb] at LO, NLOdiff, NNLOdiff, N3LOdiff =     0.015885    0.020561    0.008998    0.001413
#----------------------------------------------------------------------
# the lines that follow give the jet-veto efficiencies as a function of pt
#         pt            matched eff      resummed eff     fixed-order eff
   2.00000000E+001   4.68328569E-001   4.41596529E-001   4.69057413E-001
   2.50000000E+001   5.54575800E-001   4.56069828E-001   5.55288671E-001
   3.00000000E+001   6.21877483E-001   4.60786448E-001   6.22338019E-001
   3.50000000E+001   6.75594643E-001   4.62553888E-001   6.75875821E-001
   4.00000000E+001   7.19222847E-001   4.63305917E-001   7.19396295E-001
   4.50000000E+001   7.55234394E-001   4.63660600E-001   7.55344248E-001
   5.00000000E+001   7.85611798E-001   4.63842252E-001   7.85683467E-001
   5.50000000E+001   8.10972477E-001   4.63941705E-001   8.11020538E-001
   6.00000000E+001   8.32724181E-001   4.63999224E-001   8.32757246E-001
   6.50000000E+001   8.51478679E-001   4.64034048E-001   8.51501964E-001
   7.00000000E+001   8.67717926E-001   4.64055965E-001   8.67734675E-001
   7.50000000E+001   8.81750785E-001   4.64070225E-001   8.81763053E-001
   8.00000000E+001   8.94077937E-001   4.64079773E-001   8.94087077E-001
   8.50000000E+001   9.04939696E-001   4.64086330E-001   9.04946611E-001
   9.00000000E+001   9.14512013E-001   4.64090934E-001   9.14517318E-001
   9.50000000E+001   9.22898956E-001   4.64094230E-001   9.22903074E-001
   1.00000000E+002   9.30436930E-001   4.64096632E-001   9.30440166E-001
   1.05000000E+002   9.37032683E-001   4.64098411E-001   9.37035250E-001
   1.10000000E+002   9.42934600E-001   4.64099748E-001   9.42936658E-001
   1.15000000E+002   9.48230897E-001   4.64100765E-001   9.48232561E-001
   1.20000000E+002   9.52996787E-001   4.64101548E-001   9.52998144E-001
   1.25000000E+002   9.57325346E-001   4.64102158E-001   9.57326460E-001
   1.30000000E+002   9.61147727E-001   4.64102637E-001   9.61148649E-001
   1.35000000E+002   9.64601012E-001   4.64103018E-001   9.64601780E-001
   1.40000000E+002   9.67750288E-001   4.64103323E-001   9.67750932E-001
   1.45000000E+002   9.70612094E-001   4.64103568E-001   9.70612637E-001
   1.50000000E+002   9.73232102E-001   4.64103768E-001   9.73232562E-001
   1.55000000E+002   9.75586605E-001   4.64103932E-001   9.75586996E-001
   1.60000000E+002   9.77726912E-001   4.64104067E-001   9.77727247E-001
   1.65000000E+002   9.79660602E-001   4.64104179E-001   9.79660891E-001
   1.70000000E+002   9.81439354E-001   4.64104272E-001   9.81439603E-001
   1.75000000E+002   9.83053455E-001   4.64104350E-001   9.83053670E-001
   1.80000000E+002   9.84507334E-001   4.64104416E-001   9.84507522E-001
   1.85000000E+002   9.85854113E-001   4.64104471E-001   9.85854277E-001
   1.90000000E+002   9.87085270E-001   4.64104519E-001   9.87085413E-001
   1.95000000E+002   9.88208188E-001   4.64104559E-001   9.88208314E-001
   2.00000000E+002   9.89235861E-001   4.64104594E-001   9.89235973E-001
   2.05000000E+002   9.90177660E-001   4.64104624E-001   9.90177759E-001
   2.10000000E+002   9.91021189E-001   4.64104649E-001   9.91021276E-001
   2.15000000E+002   9.91819563E-001   4.64104672E-001   9.91819641E-001
   2.20000000E+002   9.92548992E-001   4.64104691E-001   9.92549062E-001
   2.25000000E+002   9.93196691E-001   4.64104708E-001   9.93196753E-001
   2.30000000E+002   9.93833041E-001   4.64104723E-001   9.93833097E-001
   2.35000000E+002   9.94380312E-001   4.64104736E-001   9.94380362E-001
   2.40000000E+002   9.94897855E-001   4.64104747E-001   9.94897900E-001
   2.45000000E+002   9.95371165E-001   4.64104758E-001   9.95371206E-001
