# ./jetvheto -in n3lo-fixed-order/H125-LHC13-R04-mb-0-mt-1725-xmur200-xmuf100-log.fxd -xQ 0.0625 -out benchmarks-n3lo-smallR/H125-LHC13-R04-mb-0-mt-1725-xmur200-xmuf100-xQ0625-N3LO+NNLLb.R0-1.0.res -scheme b -order 2 -ptmax 500.01 -small-r -fixed_order 3 -loop-mass t -R0 1.0
# process = H    
# collider = pp   
# rts =  13000.000
# M   =    125.000
# muR =    250.000
# muF =    125.000
# Q   =      7.812
# p   =      5.000
# include_c1_squared =   F
# loop_mass  = t   
# alphas(MZ) =    0.11800
# alphas(M) =    0.11264
# alphas(muR) =    0.10244
# Rjet =      0.400
# order = NNLL
# pdf name and set = PDF4LHC15_nnlo_mc.LHgrid,    0
# matching scheme = b
# total cross sections [nb] at LO, NLOdiff, NNLOdiff, N3LOdiff =     0.011501    0.015066    0.010526    0.005600
#----------------------------------------------------------------------
# the lines that follow give the jet-veto efficiencies as a function of pt
#         pt            matched eff      resummed eff     fixed-order eff
   2.00000000E+001   4.14125304E-001   3.68588178E-001   4.13869553E-001
   2.50000000E+001   5.08865826E-001   3.69199873E-001   5.08802619E-001
   3.00000000E+001   5.85810858E-001   3.69378985E-001   5.85793323E-001
   3.50000000E+001   6.45749059E-001   3.69443739E-001   6.45743736E-001
   4.00000000E+001   6.94204236E-001   3.69470911E-001   6.94202670E-001
   4.50000000E+001   7.33629467E-001   3.69483648E-001   7.33629119E-001
   5.00000000E+001   7.66872565E-001   3.69490153E-001   7.66872624E-001
   5.50000000E+001   7.95126016E-001   3.69493708E-001   7.95126194E-001
   6.00000000E+001   8.19023784E-001   3.69495763E-001   8.19023976E-001
   6.50000000E+001   8.40080605E-001   3.69497006E-001   8.40080780E-001
   7.00000000E+001   8.57918368E-001   3.69497788E-001   8.57918516E-001
   7.50000000E+001   8.73018899E-001   3.69498297E-001   8.73019019E-001
   8.00000000E+001   8.86267470E-001   3.69498638E-001   8.86267566E-001
   8.50000000E+001   8.98099755E-001   3.69498872E-001   8.98099833E-001
   9.00000000E+001   9.08299505E-001   3.69499036E-001   9.08299567E-001
   9.50000000E+001   9.17518972E-001   3.69499153E-001   9.17519023E-001
   1.00000000E+002   9.25396206E-001   3.69499239E-001   9.25396247E-001
   1.05000000E+002   9.32445601E-001   3.69499303E-001   9.32445635E-001
   1.10000000E+002   9.38744600E-001   3.69499350E-001   9.38744628E-001
   1.15000000E+002   9.44423072E-001   3.69499387E-001   9.44423095E-001
   1.20000000E+002   9.49400076E-001   3.69499414E-001   9.49400094E-001
   1.25000000E+002   9.53774470E-001   3.69499436E-001   9.53774485E-001
   1.30000000E+002   9.58014017E-001   3.69499453E-001   9.58014030E-001
   1.35000000E+002   9.61750268E-001   3.69499467E-001   9.61750279E-001
   1.40000000E+002   9.64980548E-001   3.69499478E-001   9.64980558E-001
   1.45000000E+002   9.68022924E-001   3.69499487E-001   9.68022931E-001
   1.50000000E+002   9.70647745E-001   3.69499494E-001   9.70647752E-001
   1.55000000E+002   9.73339621E-001   3.69499500E-001   9.73339626E-001
   1.60000000E+002   9.75363840E-001   3.69499504E-001   9.75363845E-001
   1.65000000E+002   9.77406980E-001   3.69499508E-001   9.77406984E-001
   1.70000000E+002   9.79223717E-001   3.69499512E-001   9.79223721E-001
   1.75000000E+002   9.80943063E-001   3.69499514E-001   9.80943066E-001
   1.80000000E+002   9.82526474E-001   3.69499517E-001   9.82526477E-001
   1.85000000E+002   9.83954140E-001   3.69499519E-001   9.83954143E-001
   1.90000000E+002   9.85062729E-001   3.69499520E-001   9.85062731E-001
   1.95000000E+002   9.86325401E-001   3.69499522E-001   9.86325403E-001
   2.00000000E+002   9.87421030E-001   3.69499523E-001   9.87421032E-001
   2.05000000E+002   9.88390711E-001   3.69499524E-001   9.88390712E-001
   2.10000000E+002   9.89261745E-001   3.69499525E-001   9.89261746E-001
   2.15000000E+002   9.90167047E-001   3.69499526E-001   9.90167048E-001
   2.20000000E+002   9.90883387E-001   3.69499527E-001   9.90883388E-001
   2.25000000E+002   9.91601236E-001   3.69499527E-001   9.91601237E-001
   2.30000000E+002   9.92268972E-001   3.69499528E-001   9.92268973E-001
   2.35000000E+002   9.92889292E-001   3.69499528E-001   9.92889292E-001
   2.40000000E+002   9.93357341E-001   3.69499529E-001   9.93357342E-001
   2.45000000E+002   9.93907884E-001   3.69499529E-001   9.93907885E-001
