# ./jetvheto -in n3lo-fixed-order/H125-LHC13-R04-mb-475-mt-1725-xmur100-xmuf200-log.fxd -xQ 0.5 -out benchmarks-n3lo-smallR/H125-LHC13-R04-mb-475-mt-1725-xmur100-xmuf200-xQ050-N3LO+NNLLa.R0-0.5.res -scheme a -order 2 -ptmax 500.01 -fixed_order 3 -small-r -loop-mass t+b -R0 0.5
# process = H    
# collider = pp   
# rts =  13000.000
# M   =    125.000
# muR =    125.000
# muF =    250.000
# Q   =     62.500
# p   =      5.000
# include_c1_squared =   F
# loop_mass  = t+b 
# alphas(MZ) =    0.11800
# alphas(M) =    0.11264
# alphas(muR) =    0.11264
# Rjet =      0.400
# order = NNLL
# pdf name and set = PDF4LHC15_nnlo_mc.LHgrid,    0
# matching scheme = a
# total cross sections [nb] at LO, NLOdiff, NNLOdiff, N3LOdiff =     0.012791    0.017144    0.009991    0.003297
#----------------------------------------------------------------------
# the lines that follow give the jet-veto efficiencies as a function of pt
#         pt            matched eff      resummed eff     fixed-order eff
   2.00000000E+001   4.47313580E-001   5.13375758E-001   4.44294678E-001
   2.50000000E+001   5.37257467E-001   5.92347078E-001   5.34693761E-001
   3.00000000E+001   6.07130656E-001   6.47795217E-001   6.03754500E-001
   3.50000000E+001   6.64650432E-001   6.86224392E-001   6.60767062E-001
   4.00000000E+001   7.11412657E-001   7.12328740E-001   7.07312178E-001
   4.50000000E+001   7.48573161E-001   7.29568142E-001   7.44538846E-001
   5.00000000E+001   7.81610991E-001   7.40566112E-001   7.77954575E-001
   5.50000000E+001   8.07884803E-001   7.47327164E-001   8.04708800E-001
   6.00000000E+001   8.30260984E-001   7.51343169E-001   8.27611409E-001
   6.50000000E+001   8.49144967E-001   7.53665152E-001   8.46993784E-001
   7.00000000E+001   8.66607544E-001   7.54985806E-001   8.64890386E-001
   7.50000000E+001   8.80780745E-001   7.55733125E-001   8.79424059E-001
   8.00000000E+001   8.93106850E-001   7.56158214E-001   8.92038991E-001
   8.50000000E+001   9.04207671E-001   7.56403294E-001   9.03366999E-001
   9.00000000E+001   9.13575683E-001   7.56547377E-001   9.12911817E-001
   9.50000000E+001   9.22584604E-001   7.56634075E-001   9.22057521E-001
   1.00000000E+002   9.30057690E-001   7.56687600E-001   9.29637057E-001
   1.05000000E+002   9.36586598E-001   7.56721562E-001   9.36248679E-001
   1.10000000E+002   9.42184059E-001   7.56743702E-001   9.41910806E-001
   1.15000000E+002   9.47638442E-001   7.56758524E-001   9.47415885E-001
   1.20000000E+002   9.52610926E-001   7.56768703E-001   9.52428414E-001
   1.25000000E+002   9.56611656E-001   7.56775863E-001   9.56461113E-001
   1.30000000E+002   9.60521419E-001   7.56781013E-001   9.60396422E-001
   1.35000000E+002   9.63784700E-001   7.56784794E-001   9.63680309E-001
   1.40000000E+002   9.67209322E-001   7.56787623E-001   9.67121607E-001
   1.45000000E+002   9.69786316E-001   7.56789777E-001   9.69712259E-001
   1.50000000E+002   9.72407703E-001   7.56791442E-001   9.72344836E-001
   1.55000000E+002   9.74723850E-001   7.56792747E-001   9.74670228E-001
   1.60000000E+002   9.76707677E-001   7.56793782E-001   9.76661728E-001
   1.65000000E+002   9.78394672E-001   7.56794614E-001   9.78355133E-001
   1.70000000E+002   9.80311314E-001   7.56795288E-001   9.80277133E-001
   1.75000000E+002   9.81806179E-001   7.56795840E-001   9.81776524E-001
   1.80000000E+002   9.83532999E-001   7.56796296E-001   9.83507162E-001
   1.85000000E+002   9.84644851E-001   7.56796675E-001   9.84622271E-001
   1.90000000E+002   9.85841482E-001   7.56796992E-001   9.85821678E-001
   1.95000000E+002   9.86889117E-001   7.56797259E-001   9.86871691E-001
   2.00000000E+002   9.88125572E-001   7.56797486E-001   9.88110187E-001
   2.05000000E+002   9.88877677E-001   7.56797679E-001   9.88864059E-001
   2.10000000E+002   9.89607121E-001   7.56797844E-001   9.89595033E-001
   2.15000000E+002   9.90451116E-001   7.56797987E-001   9.90440354E-001
   2.20000000E+002   9.91235140E-001   7.56798110E-001   9.91225534E-001
   2.25000000E+002   9.91801515E-001   7.56798216E-001   9.91792921E-001
   2.30000000E+002   9.92352626E-001   7.56798309E-001   9.92344919E-001
   2.35000000E+002   9.92953310E-001   7.56798390E-001   9.92946382E-001
   2.40000000E+002   9.93471725E-001   7.56798461E-001   9.93465484E-001
   2.45000000E+002   9.93975179E-001   7.56798524E-001   9.93969545E-001
