# ./jetvheto -in n3lo-fixed-order/H125-LHC13-R04-mb-0-mt-1725-xmur200-xmuf100-log.fxd -xQ 0.5 -out benchmarks-n3lo-smallR/H125-LHC13-R04-mb-0-mt-1725-xmur200-xmuf100-xQ050-NNLO+NNLLa.R0-1.5.res -scheme a -order 2 -ptmax 500.01 -small-r -fixed_order 2 -loop-mass t -R0 1.5
# process = H    
# collider = pp   
# rts =  13000.000
# M   =    125.000
# muR =    250.000
# muF =    125.000
# Q   =     62.500
# p   =      5.000
# include_c1_squared =   F
# loop_mass  = t   
# alphas(MZ) =    0.11800
# alphas(M) =    0.11264
# alphas(muR) =    0.10244
# Rjet =      0.400
# order = NNLL
# pdf name and set = PDF4LHC15_nnlo_mc.LHgrid,    0
# matching scheme = a
# total cross sections [nb] at LO, NLOdiff, NNLOdiff, N3LOdiff =     0.011501    0.015066    0.010526    0.005600
#----------------------------------------------------------------------
# the lines that follow give the jet-veto efficiencies as a function of pt
#         pt            matched eff      resummed eff     fixed-order eff
   2.00000000E+001   5.03249360E-001   5.38230550E-001   5.46775556E-001
   2.50000000E+001   5.92680476E-001   6.24290122E-001   6.22665977E-001
   3.00000000E+001   6.61749476E-001   6.85769582E-001   6.80366203E-001
   3.50000000E+001   7.15696690E-001   7.29172522E-001   7.25868363E-001
   4.00000000E+001   7.58188603E-001   7.59275443E-001   7.62627000E-001
   4.50000000E+001   7.91830715E-001   7.79658366E-001   7.92719035E-001
   5.00000000E+001   8.18897902E-001   7.93071860E-001   8.17844948E-001
   5.50000000E+001   8.40926233E-001   8.01645281E-001   8.39010620E-001
   6.00000000E+001   8.59219545E-001   8.06993333E-001   8.57089921E-001
   6.50000000E+001   8.74640985E-001   8.10280111E-001   8.72633098E-001
   7.00000000E+001   8.87751923E-001   8.12293532E-001   8.86005250E-001
   7.50000000E+001   8.99191636E-001   8.13537009E-001   8.97736538E-001
   8.00000000E+001   9.09199667E-001   8.14318354E-001   9.08015650E-001
   8.50000000E+001   9.17960178E-001   8.14820748E-001   9.17007918E-001
   9.00000000E+001   9.25723470E-001   8.15152272E-001   9.24961112E-001
   9.50000000E+001   9.32584484E-001   8.15376903E-001   9.31974125E-001
   1.00000000E+002   9.38731155E-001   8.15533020E-001   9.38241085E-001
   1.05000000E+002   9.44227251E-001   8.15644099E-001   9.43832023E-001
   1.10000000E+002   9.49098024E-001   8.15724830E-001   9.48777585E-001
   1.15000000E+002   9.53528594E-001   8.15784632E-001   9.53267251E-001
   1.20000000E+002   9.57494508E-001   8.15829684E-001   9.57280069E-001
   1.25000000E+002   9.61085703E-001   8.15864139E-001   9.60908684E-001
   1.30000000E+002   9.64345005E-001   8.15890842E-001   9.64197997E-001
   1.35000000E+002   9.67276310E-001   8.15911788E-001   9.67153529E-001
   1.40000000E+002   9.69944709E-001   8.15928395E-001   9.69841579E-001
   1.45000000E+002   9.72390259E-001   8.15941690E-001   9.72303178E-001
   1.50000000E+002   9.74585233E-001   8.15952427E-001   9.74511326E-001
   1.55000000E+002   9.76617773E-001   8.15961170E-001   9.76554739E-001
   1.60000000E+002   9.78472694E-001   8.15968340E-001   9.78418687E-001
   1.65000000E+002   9.80156775E-001   8.15974262E-001   9.80110300E-001
   1.70000000E+002   9.81703172E-001   8.15979184E-001   9.81663010E-001
   1.75000000E+002   9.83097923E-001   8.15983297E-001   9.83063080E-001
   1.80000000E+002   9.84391383E-001   8.15986755E-001   9.84361040E-001
   1.85000000E+002   9.85568198E-001   8.15989676E-001   9.85541678E-001
   1.90000000E+002   9.86658366E-001   8.15992156E-001   9.86635108E-001
   1.95000000E+002   9.87664442E-001   8.15994270E-001   9.87643979E-001
   2.00000000E+002   9.88579292E-001   8.15996081E-001   9.88561232E-001
   2.05000000E+002   9.89433138E-001   8.15997637E-001   9.89417151E-001
   2.10000000E+002   9.90206381E-001   8.15998981E-001   9.90192188E-001
   2.15000000E+002   9.90914965E-001   8.16000145E-001   9.90902332E-001
   2.20000000E+002   9.91577476E-001   8.16001156E-001   9.91566202E-001
   2.25000000E+002   9.92184893E-001   8.16002038E-001   9.92174807E-001
   2.30000000E+002   9.92747898E-001   8.16002810E-001   9.92738853E-001
   2.35000000E+002   9.93274441E-001   8.16003486E-001   9.93266311E-001
   2.40000000E+002   9.93749720E-001   8.16004082E-001   9.93742396E-001
   2.45000000E+002   9.94195619E-001   8.16004607E-001   9.94189007E-001
