# ./jetvheto -in n3lo-fixed-order/H125-LHC13-R04-mb-0-mt-1725-xmur025-xmuf050-log.fxd -xQ 0.25 -out benchmarks-n3lo-smallR/H125-LHC13-R04-mb-0-mt-1725-xmur025-xmuf050-xQ025-N3LO+NNLLa.R0-1.0.res -scheme a -order 2 -ptmax 500.01 -small-r -fixed_order 3 -loop-mass t -R0 1.0
# process = H    
# collider = pp   
# rts =  13000.000
# M   =    125.000
# muR =     31.250
# muF =     62.500
# Q   =     31.250
# p   =      5.000
# include_c1_squared =   F
# loop_mass  = t   
# alphas(MZ) =    0.11800
# alphas(M) =    0.11264
# alphas(muR) =    0.14091
# Rjet =      0.400
# order = NNLL
# pdf name and set = PDF4LHC15_nnlo_mc.LHgrid,    0
# matching scheme = a
# total cross sections [nb] at LO, NLOdiff, NNLOdiff, N3LOdiff =     0.019855    0.024744    0.005009   -0.002663
#----------------------------------------------------------------------
# the lines that follow give the jet-veto efficiencies as a function of pt
#         pt            matched eff      resummed eff     fixed-order eff
   2.00000000E+001   4.64468904E-001   4.49542574E-001   4.64441433E-001
   2.50000000E+001   5.48528950E-001   5.11593703E-001   5.46982713E-001
   3.00000000E+001   6.22768693E-001   5.48248814E-001   6.21747969E-001
   3.50000000E+001   6.81399662E-001   5.68263767E-001   6.80660873E-001
   4.00000000E+001   7.25284289E-001   5.78799940E-001   7.24684346E-001
   4.50000000E+001   7.65093832E-001   5.84374919E-001   7.64688533E-001
   5.00000000E+001   7.96135721E-001   5.87413816E-001   7.95840800E-001
   5.50000000E+001   8.23380627E-001   5.89136343E-001   8.23173148E-001
   6.00000000E+001   8.45204817E-001   5.90152745E-001   8.45052906E-001
   6.50000000E+001   8.66426033E-001   5.90775567E-001   8.66318719E-001
   7.00000000E+001   8.81411719E-001   5.91170495E-001   8.81329841E-001
   7.50000000E+001   8.95181393E-001   5.91428681E-001   8.95119563E-001
   8.00000000E+001   9.07861370E-001   5.91602117E-001   9.07814578E-001
   8.50000000E+001   9.19167991E-001   5.91721470E-001   9.19132236E-001
   9.00000000E+001   9.29142615E-001   5.91805391E-001   9.29114976E-001
   9.50000000E+001   9.36546588E-001   5.91865549E-001   9.36524636E-001
   1.00000000E+002   9.43980848E-001   5.91909427E-001   9.43963449E-001
   1.05000000E+002   9.49392314E-001   5.91941934E-001   9.49378223E-001
   1.10000000E+002   9.54489706E-001   5.91966364E-001   9.54478252E-001
   1.15000000E+002   9.59548439E-001   5.91984961E-001   9.59539125E-001
   1.20000000E+002   9.64113240E-001   5.91999286E-001   9.64105612E-001
   1.25000000E+002   9.67630658E-001   5.92010442E-001   9.67624322E-001
   1.30000000E+002   9.70600656E-001   5.92019217E-001   9.70595359E-001
   1.35000000E+002   9.73822069E-001   5.92026182E-001   9.73817644E-001
   1.40000000E+002   9.76761954E-001   5.92031759E-001   9.76758237E-001
   1.45000000E+002   9.79228203E-001   5.92036260E-001   9.79225058E-001
   1.50000000E+002   9.80842938E-001   5.92039919E-001   9.80840244E-001
   1.55000000E+002   9.83175915E-001   5.92042915E-001   9.83173622E-001
   1.60000000E+002   9.85242332E-001   5.92045383E-001   9.85240369E-001
   1.65000000E+002   9.86020182E-001   5.92047430E-001   9.86018475E-001
   1.70000000E+002   9.87597573E-001   5.92049135E-001   9.87596097E-001
   1.75000000E+002   9.89071845E-001   5.92050565E-001   9.89070565E-001
   1.80000000E+002   9.90031284E-001   5.92051770E-001   9.90030165E-001
   1.85000000E+002   9.90905025E-001   5.92052789E-001   9.90904044E-001
   1.90000000E+002   9.91919021E-001   5.92053656E-001   9.91918160E-001
   1.95000000E+002   9.92869505E-001   5.92054396E-001   9.92868747E-001
   2.00000000E+002   9.93682935E-001   5.92055030E-001   9.93682266E-001
   2.05000000E+002   9.94218601E-001   5.92055577E-001   9.94218008E-001
   2.10000000E+002   9.94841239E-001   5.92056048E-001   9.94840712E-001
   2.15000000E+002   9.95209583E-001   5.92056457E-001   9.95209113E-001
   2.20000000E+002   9.96061511E-001   5.92056813E-001   9.96061092E-001
   2.25000000E+002   9.96292877E-001   5.92057123E-001   9.96292501E-001
   2.30000000E+002   9.96700144E-001   5.92057395E-001   9.96699807E-001
   2.35000000E+002   9.96933539E-001   5.92057633E-001   9.96933235E-001
   2.40000000E+002   9.97251179E-001   5.92057843E-001   9.97250905E-001
   2.45000000E+002   9.97727745E-001   5.92058028E-001   9.97727498E-001
