# ./jetvheto -in n3lo-fixed-order/H125-LHC13-R04-heft-xmur100-xmuf100-log.fxd -xQ 1.00 -out benchmarks-n3lo-smallR/H125-LHC13-R04-heft-xmur100-xmuf100-xQ100-NNLO+NNLLb.R0-1.5.res -scheme b -order 2 -ptmax 500.01 -fixed_order 2 -small-r -R0 1.5
# process = H    
# collider = pp   
# rts =  13000.000
# M   =    125.000
# muR =    125.000
# muF =    125.000
# Q   =    125.000
# p   =      5.000
# include_c1_squared =   F
# loop_mass  = none
# alphas(MZ) =    0.11800
# alphas(M) =    0.11264
# alphas(muR) =    0.11264
# Rjet =      0.400
# order = NNLL
# pdf name and set = PDF4LHC15_nnlo_mc.LHgrid,    0
# matching scheme = b
# total cross sections [nb] at LO, NLOdiff, NNLOdiff, N3LOdiff =     0.012945    0.016716    0.010146    0.003834
#----------------------------------------------------------------------
# the lines that follow give the jet-veto efficiencies as a function of pt
#         pt            matched eff      resummed eff     fixed-order eff
   2.00000000E+001   4.54483999E-001   6.05132312E-001   3.33152974E-001
   2.50000000E+001   5.37404460E-001   6.90483451E-001   4.42354030E-001
   3.00000000E+001   6.04434394E-001   7.50041408E-001   5.26280770E-001
   3.50000000E+001   6.59113992E-001   7.91276502E-001   5.92590428E-001
   4.00000000E+001   7.04449860E-001   8.19343144E-001   6.46413459E-001
   4.50000000E+001   7.42116985E-001   8.37802424E-001   6.90650611E-001
   5.00000000E+001   7.73773418E-001   8.49177948E-001   7.27636368E-001
   5.50000000E+001   8.00455176E-001   8.55299757E-001   7.58824117E-001
   6.00000000E+001   8.23227106E-001   8.57508529E-001   7.85509225E-001
   6.50000000E+001   8.42728779E-001   8.56807849E-001   8.08501674E-001
   7.00000000E+001   8.59350083E-001   8.53970849E-001   8.28308351E-001
   7.50000000E+001   8.73717458E-001   8.49601474E-001   8.45602652E-001
   8.00000000E+001   8.86146637E-001   8.44181267E-001   8.60742611E-001
   8.50000000E+001   8.96859140E-001   8.38097656E-001   8.73982907E-001
   9.00000000E+001   9.06301615E-001   8.31664189E-001   8.85762882E-001
   9.50000000E+001   9.14495248E-001   8.25130777E-001   8.96129047E-001
   1.00000000E+002   9.21709499E-001   8.18695032E-001   9.05347624E-001
   1.05000000E+002   9.28098319E-001   8.12507719E-001   9.13574722E-001
   1.10000000E+002   9.33734037E-001   8.06677461E-001   9.20889329E-001
   1.15000000E+002   9.38823601E-001   8.01276741E-001   9.27495781E-001
   1.20000000E+002   9.43369885E-001   7.96345920E-001   9.33407561E-001
   1.25000000E+002   9.47483910E-001   7.91899165E-001   9.38739831E-001
   1.30000000E+002   9.51206798E-001   7.87930193E-001   9.43544289E-001
   1.35000000E+002   9.54630910E-001   7.84417812E-001   9.47922026E-001
   1.40000000E+002   9.57702609E-001   7.81330915E-001   9.51833307E-001
   1.45000000E+002   9.60594622E-001   7.78632689E-001   9.55457933E-001
   1.50000000E+002   9.63182235E-001   7.76283952E-001   9.58686494E-001
   1.55000000E+002   9.65588864E-001   7.74245537E-001   9.61650523E-001
   1.60000000E+002   9.67834341E-001   7.72479949E-001   9.64380158E-001
   1.65000000E+002   9.69886550E-001   7.70952430E-001   9.66853279E-001
   1.70000000E+002   9.71814639E-001   7.69631465E-001   9.69146535E-001
   1.75000000E+002   9.73568925E-001   7.68488960E-001   9.71218357E-001
   1.80000000E+002   9.75220895E-001   7.67500191E-001   9.73146048E-001
   1.85000000E+002   9.76733259E-001   7.66643608E-001   9.74898433E-001
   1.90000000E+002   9.78144862E-001   7.65900565E-001   9.76518987E-001
   1.95000000E+002   9.79485164E-001   7.65255010E-001   9.78041382E-001
   2.00000000E+002   9.80717591E-001   7.64693177E-001   9.79433004E-001
   2.05000000E+002   9.81871938E-001   7.64203292E-001   9.80726600E-001
   2.10000000E+002   9.82936105E-001   7.63775298E-001   9.81912904E-001
   2.15000000E+002   9.83913113E-001   7.63400610E-001   9.82997248E-001
   2.20000000E+002   9.84840377E-001   7.63071907E-001   9.84018885E-001
   2.25000000E+002   9.85700307E-001   7.62782936E-001   9.84962045E-001
   2.30000000E+002   9.86507291E-001   7.62528357E-001   9.85842551E-001
   2.35000000E+002   9.87280712E-001   7.62303604E-001   9.86681004E-001
   2.40000000E+002   9.87981316E-001   7.62104768E-001   9.87439341E-001
   2.45000000E+002   9.88646844E-001   7.61928497E-001   9.88156143E-001
