# ./jetvheto -in n3lo-fixed-order/H125-LHC13-R04-mb-475-mt-1725-xmur200-xmuf100-log.fxd -xQ 0.5 -out benchmarks-n3lo-smallR/H125-LHC13-R04-mb-475-mt-1725-xmur200-xmuf100-xQ050-NNLO+NNLLb.R0-2.0.res -scheme b -order 2 -ptmax 500.01 -fixed_order 2 -small-r -loop-mass t+b -R0 2.0
# process = H    
# collider = pp   
# rts =  13000.000
# M   =    125.000
# muR =    250.000
# muF =    125.000
# Q   =     62.500
# p   =      5.000
# include_c1_squared =   F
# loop_mass  = t+b 
# alphas(MZ) =    0.11800
# alphas(M) =    0.11264
# alphas(muR) =    0.10244
# Rjet =      0.400
# order = NNLL
# pdf name and set = PDF4LHC15_nnlo_mc.LHgrid,    0
# matching scheme = b
# total cross sections [nb] at LO, NLOdiff, NNLOdiff, N3LOdiff =     0.010243    0.014468    0.010526    0.005600
#----------------------------------------------------------------------
# the lines that follow give the jet-veto efficiencies as a function of pt
#         pt            matched eff      resummed eff     fixed-order eff
   2.00000000E+001   4.04082847E-001   5.21393166E-001   3.28991553E-001
   2.50000000E+001   4.87730806E-001   6.03562658E-001   4.37913320E-001
   3.00000000E+001   5.56429903E-001   6.62185493E-001   5.21523223E-001
   3.50000000E+001   6.13536301E-001   7.03522960E-001   5.88073721E-001
   4.00000000E+001   6.61031046E-001   7.32157406E-001   6.41967052E-001
   4.50000000E+001   7.01024305E-001   7.51517358E-001   6.86538953E-001
   5.00000000E+001   7.34991696E-001   7.64234305E-001   7.23921373E-001
   5.50000000E+001   7.63965013E-001   7.72343768E-001   7.55501832E-001
   6.00000000E+001   7.89086368E-001   7.77387917E-001   7.82629750E-001
   6.50000000E+001   8.10956865E-001   7.80477242E-001   8.06038024E-001
   7.00000000E+001   8.30058393E-001   7.82362184E-001   8.26309424E-001
   7.50000000E+001   8.46829291E-001   7.83521226E-001   8.43964512E-001
   8.00000000E+001   8.61739212E-001   7.84246192E-001   8.59539380E-001
   8.50000000E+001   8.74861531E-001   7.84710216E-001   8.73161527E-001
   9.00000000E+001   8.86638592E-001   7.85015093E-001   8.85315039E-001
   9.50000000E+001   8.97061796E-001   7.85220848E-001   8.96023065E-001
   1.00000000E+002   9.06382558E-001   7.85363340E-001   9.05560581E-001
   1.05000000E+002   9.14776654E-001   7.85464415E-001   9.14120778E-001
   1.10000000E+002   9.22206303E-001   7.85537684E-001   9.21678769E-001
   1.15000000E+002   9.28965197E-001   7.85591838E-001   9.28537545E-001
   1.20000000E+002   9.34962466E-001   7.85632562E-001   9.34613214E-001
   1.25000000E+002   9.40470860E-001   7.85663658E-001   9.40183574E-001
   1.30000000E+002   9.45431205E-001   7.85687730E-001   9.45193299E-001
   1.35000000E+002   9.49944056E-001   7.85706591E-001   9.49745786E-001
   1.40000000E+002   9.54009286E-001   7.85721532E-001   9.53843045E-001
   1.45000000E+002   9.57761260E-001   7.85733485E-001   9.57621084E-001
   1.50000000E+002   9.61127166E-001   7.85743134E-001   9.61008331E-001
   1.55000000E+002   9.64243429E-001   7.85750986E-001   9.64142171E-001
   1.60000000E+002   9.67056932E-001   7.85757423E-001   9.66970244E-001
   1.65000000E+002   9.69638252E-001   7.85762738E-001   9.69563698E-001
   1.70000000E+002   9.72003466E-001   7.85767153E-001   9.71939074E-001
   1.75000000E+002   9.74147770E-001   7.85770843E-001   9.74091928E-001
   1.80000000E+002   9.76119117E-001   7.85773944E-001   9.76070506E-001
   1.85000000E+002   9.77926080E-001   7.85776563E-001   9.77883606E-001
   1.90000000E+002   9.79587967E-001   7.85778786E-001   9.79550728E-001
   1.95000000E+002   9.81137471E-001   7.85780682E-001   9.81104714E-001
   2.00000000E+002   9.82544666E-001   7.85782305E-001   9.82515760E-001
   2.05000000E+002   9.83850591E-001   7.85783700E-001   9.83825007E-001
   2.10000000E+002   9.85045663E-001   7.85784904E-001   9.85022954E-001
   2.15000000E+002   9.86125746E-001   7.85785947E-001   9.86105535E-001
   2.20000000E+002   9.87141875E-001   7.85786853E-001   9.87123839E-001
   2.25000000E+002   9.88073204E-001   7.85787643E-001   9.88057069E-001
   2.30000000E+002   9.88932310E-001   7.85788334E-001   9.88917842E-001
   2.35000000E+002   9.89733275E-001   7.85788941E-001   9.89720271E-001
   2.40000000E+002   9.90457030E-001   7.85789474E-001   9.90445317E-001
   2.45000000E+002   9.91142029E-001   7.85789945E-001   9.91131456E-001
