# ./jetvheto -in n3lo-fixed-order/H125-LHC13-R04-mb-475-mt-1725-xmur100-xmuf200-log.fxd -xQ 0.5 -out benchmarks-n3lo-smallR/H125-LHC13-R04-mb-475-mt-1725-xmur100-xmuf200-xQ050-N3LO+NNLLb.res -scheme b -order 2 -ptmax 500.01 -fixed_order 3 -loop-mass t+b
# process = H    
# collider = pp   
# rts =  13000.000
# M   =    125.000
# muR =    125.000
# muF =    250.000
# Q   =     62.500
# p   =      5.000
# include_c1_squared =   F
# loop_mass  = t+b 
# alphas(MZ) =    0.11800
# alphas(M) =    0.11264
# alphas(muR) =    0.11264
# Rjet =      0.400
# order = NNLL
# pdf name and set = PDF4LHC15_nnlo_mc.LHgrid,    0
# matching scheme = b
# total cross sections [nb] at LO, NLOdiff, NNLOdiff, N3LOdiff =     0.012791    0.017144    0.009991    0.003297
#----------------------------------------------------------------------
# the lines that follow give the jet-veto efficiencies as a function of pt
#         pt            matched eff      resummed eff     fixed-order eff
   2.00000000E+001   4.25168789E-001   5.13172963E-001   3.98403480E-001
   2.50000000E+001   5.14357074E-001   5.92192249E-001   4.96267892E-001
   3.00000000E+001   5.84403161E-001   6.47679372E-001   5.71031797E-001
   3.50000000E+001   6.42901357E-001   6.86138896E-001   6.32752564E-001
   4.00000000E+001   6.91047752E-001   7.12266330E-001   6.83141463E-001
   4.50000000E+001   7.29709482E-001   7.29522987E-001   7.23442380E-001
   5.00000000E+001   7.64531511E-001   7.40533642E-001   7.59617644E-001
   5.50000000E+001   7.92439954E-001   7.47303878E-001   7.88581283E-001
   6.00000000E+001   8.16381743E-001   7.51326446E-001   8.13375233E-001
   6.50000000E+001   8.36689193E-001   7.53653081E-001   8.34358241E-001
   7.00000000E+001   8.55536657E-001   7.54977022E-001   8.53732779E-001
   7.50000000E+001   8.70862550E-001   7.55726666E-001   8.69466670E-001
   8.00000000E+001   8.84206849E-001   7.56153410E-001   8.83123366E-001
   8.50000000E+001   8.96231850E-001   7.56399677E-001   8.95386863E-001
   9.00000000E+001   9.06382957E-001   7.56544621E-001   9.05719910E-001
   9.50000000E+001   9.16145078E-001   7.56631950E-001   9.15620884E-001
   1.00000000E+002   9.24243451E-001   7.56685944E-001   9.23826352E-001
   1.05000000E+002   9.31318390E-001   7.56720256E-001   9.30983974E-001
   1.10000000E+002   9.37383743E-001   7.56742663E-001   9.37113690E-001
   1.15000000E+002   9.43293147E-001   7.56757690E-001   9.43073389E-001
   1.20000000E+002   9.48679981E-001   7.56768027E-001   9.48499863E-001
   1.25000000E+002   9.53014099E-001   7.56775310E-001   9.52865589E-001
   1.30000000E+002   9.57249167E-001   7.56780558E-001   9.57125883E-001
   1.35000000E+002   9.60783909E-001   7.56784417E-001   9.60680960E-001
   1.40000000E+002   9.64492950E-001   7.56787309E-001   9.64406447E-001
   1.45000000E+002   9.67284072E-001   7.56789513E-001   9.67211040E-001
   1.50000000E+002   9.70123021E-001   7.56791218E-001   9.70061020E-001
   1.55000000E+002   9.72631335E-001   7.56792557E-001   9.72578448E-001
   1.60000000E+002   9.74779732E-001   7.56793621E-001   9.74734409E-001
   1.65000000E+002   9.76606662E-001   7.56794475E-001   9.76567658E-001
   1.70000000E+002   9.78682103E-001   7.56795169E-001   9.78648382E-001
   1.75000000E+002   9.80300853E-001   7.56795737E-001   9.80271594E-001
   1.80000000E+002   9.82170647E-001   7.56796206E-001   9.82145152E-001
   1.85000000E+002   9.83374632E-001   7.56796596E-001   9.83352349E-001
   1.90000000E+002   9.84670350E-001   7.56796923E-001   9.84650805E-001
   1.95000000E+002   9.85804730E-001   7.56797199E-001   9.85787530E-001
   2.00000000E+002   9.87143491E-001   7.56797433E-001   9.87128304E-001
   2.05000000E+002   9.87957875E-001   7.56797632E-001   9.87944432E-001
   2.10000000E+002   9.88747705E-001   7.56797803E-001   9.88735771E-001
   2.15000000E+002   9.89661526E-001   7.56797950E-001   9.89650901E-001
   2.20000000E+002   9.90510407E-001   7.56798077E-001   9.90500922E-001
   2.25000000E+002   9.91123651E-001   7.56798187E-001   9.91115165E-001
   2.30000000E+002   9.91720359E-001   7.56798283E-001   9.91712748E-001
   2.35000000E+002   9.92370723E-001   7.56798366E-001   9.92363881E-001
   2.40000000E+002   9.92932015E-001   7.56798440E-001   9.92925851E-001
   2.45000000E+002   9.93477104E-001   7.56798504E-001   9.93471538E-001
