# ./jetvheto -in n3lo-fixed-order/H125-LHC13-R04-mb-0-mt-1725-xmur200-xmuf100-log.fxd -xQ 0.25 -out benchmarks-n3lo-smallR/H125-LHC13-R04-mb-0-mt-1725-xmur200-xmuf100-xQ025-N3LO+NNLLb.res -scheme b -order 2 -ptmax 500.01 -fixed_order 3 -loop-mass t
# process = H    
# collider = pp   
# rts =  13000.000
# M   =    125.000
# muR =    250.000
# muF =    125.000
# Q   =     31.250
# p   =      5.000
# include_c1_squared =   F
# loop_mass  = t   
# alphas(MZ) =    0.11800
# alphas(M) =    0.11264
# alphas(muR) =    0.10244
# Rjet =      0.400
# order = NNLL
# pdf name and set = PDF4LHC15_nnlo_mc.LHgrid,    0
# matching scheme = b
# total cross sections [nb] at LO, NLOdiff, NNLOdiff, N3LOdiff =     0.011501    0.015066    0.010526    0.005600
#----------------------------------------------------------------------
# the lines that follow give the jet-veto efficiencies as a function of pt
#         pt            matched eff      resummed eff     fixed-order eff
   2.00000000E+001   4.35876085E-001   5.74791142E-001   4.13869553E-001
   2.50000000E+001   5.19620080E-001   6.50835035E-001   5.08802619E-001
   3.00000000E+001   5.90772152E-001   6.95505581E-001   5.85793323E-001
   3.50000000E+001   6.48071698E-001   7.19795410E-001   6.45743736E-001
   4.00000000E+001   6.95315756E-001   7.32548174E-001   6.94202670E-001
   4.50000000E+001   7.34183051E-001   7.39285807E-001   7.33629119E-001
   5.00000000E+001   7.67156570E-001   7.42955246E-001   7.66872624E-001
   5.50000000E+001   7.95275762E-001   7.45034128E-001   7.95126194E-001
   6.00000000E+001   8.19105572E-001   7.46260437E-001   8.19023976E-001
   6.50000000E+001   8.40125350E-001   7.47011749E-001   8.40080780E-001
   7.00000000E+001   8.57943491E-001   7.47488097E-001   8.57918516E-001
   7.50000000E+001   8.73033553E-001   7.47799490E-001   8.73019019E-001
   8.00000000E+001   8.86276052E-001   7.48008657E-001   8.86267566E-001
   8.50000000E+001   8.98104651E-001   7.48152594E-001   8.98099833E-001
   9.00000000E+001   9.08302318E-001   7.48253799E-001   9.08299567E-001
   9.50000000E+001   9.17520470E-001   7.48326346E-001   9.17519023E-001
   1.00000000E+002   9.25396994E-001   7.48379258E-001   9.25396247E-001
   1.05000000E+002   9.32445955E-001   7.48418460E-001   9.32445635E-001
   1.10000000E+002   9.38744687E-001   7.48447919E-001   9.38744628E-001
   1.15000000E+002   9.44423005E-001   7.48470345E-001   9.44423095E-001
   1.20000000E+002   9.49399931E-001   7.48487620E-001   9.49400094E-001
   1.25000000E+002   9.53774294E-001   7.48501073E-001   9.53774485E-001
   1.30000000E+002   9.58013814E-001   7.48511654E-001   9.58014030E-001
   1.35000000E+002   9.61750060E-001   7.48520054E-001   9.61750279E-001
   1.40000000E+002   9.64980351E-001   7.48526779E-001   9.64980558E-001
   1.45000000E+002   9.68022736E-001   7.48532206E-001   9.68022931E-001
   1.50000000E+002   9.70647574E-001   7.48536619E-001   9.70647752E-001
   1.55000000E+002   9.73339459E-001   7.48540231E-001   9.73339626E-001
   1.60000000E+002   9.75363698E-001   7.48543208E-001   9.75363845E-001
   1.65000000E+002   9.77406852E-001   7.48545675E-001   9.77406984E-001
   1.70000000E+002   9.79223602E-001   7.48547732E-001   9.79223721E-001
   1.75000000E+002   9.80942959E-001   7.48549456E-001   9.80943066E-001
   1.80000000E+002   9.82526380E-001   7.48550909E-001   9.82526477E-001
   1.85000000E+002   9.83954056E-001   7.48552138E-001   9.83954143E-001
   1.90000000E+002   9.85062655E-001   7.48553183E-001   9.85062731E-001
   1.95000000E+002   9.86325333E-001   7.48554076E-001   9.86325403E-001
   2.00000000E+002   9.87420969E-001   7.48554841E-001   9.87421032E-001
   2.05000000E+002   9.88390656E-001   7.48555499E-001   9.88390712E-001
   2.10000000E+002   9.89261696E-001   7.48556068E-001   9.89261746E-001
   2.15000000E+002   9.90167003E-001   7.48556561E-001   9.90167048E-001
   2.20000000E+002   9.90883347E-001   7.48556990E-001   9.90883388E-001
   2.25000000E+002   9.91601200E-001   7.48557364E-001   9.91601237E-001
   2.30000000E+002   9.92268940E-001   7.48557692E-001   9.92268973E-001
   2.35000000E+002   9.92889262E-001   7.48557979E-001   9.92889292E-001
   2.40000000E+002   9.93357314E-001   7.48558232E-001   9.93357342E-001
   2.45000000E+002   9.93907860E-001   7.48558456E-001   9.93907885E-001
