# ./jetvheto -in n3lo-fixed-order/H125-LHC13-R04-mb-475-mt-1725-xmur050-xmuf050-log.fxd -xQ 0.333 -out benchmarks-n3lo-smallR/H125-LHC13-R04-mb-475-mt-1725-xmur050-xmuf050-xQ033-NNLO+NNLLb.res -scheme b -order 2 -ptmax 500.01 -fixed_order 2 -loop-mass t+b
# process = H    
# collider = pp   
# rts =  13000.000
# M   =    125.000
# muR =     62.500
# muF =     62.500
# Q   =     41.625
# p   =      5.000
# include_c1_squared =   F
# loop_mass  = t+b 
# alphas(MZ) =    0.11800
# alphas(M) =    0.11264
# alphas(muR) =    0.12516
# Rjet =      0.400
# order = NNLL
# pdf name and set = PDF4LHC15_nnlo_mc.LHgrid,    0
# matching scheme = b
# total cross sections [nb] at LO, NLOdiff, NNLOdiff, N3LOdiff =     0.014147    0.020254    0.008998    0.001413
#----------------------------------------------------------------------
# the lines that follow give the jet-veto efficiencies as a function of pt
#         pt            matched eff      resummed eff     fixed-order eff
   2.00000000E+001   3.77182805E-001   4.64531473E-001   3.08135668E-001
   2.50000000E+001   4.60212123E-001   5.37841090E-001   4.16958718E-001
   3.00000000E+001   5.29550127E-001   5.87550518E-001   5.02459671E-001
   3.50000000E+001   5.88081398E-001   6.19819834E-001   5.71196452E-001
   4.00000000E+001   6.37854561E-001   6.39890521E-001   6.27360842E-001
   4.50000000E+001   6.80854090E-001   6.52003341E-001   6.74295094E-001
   5.00000000E+001   7.17972857E-001   6.59235377E-001   7.13816378E-001
   5.50000000E+001   7.49995939E-001   6.63583699E-001   7.47307378E-001
   6.00000000E+001   7.77793084E-001   6.66246917E-001   7.76012324E-001
   6.50000000E+001   8.01959936E-001   6.67917925E-001   8.00751743E-001
   7.00000000E+001   8.23181024E-001   6.68993747E-001   8.22342000E-001
   7.50000000E+001   8.41620235E-001   6.69704133E-001   8.41024239E-001
   8.00000000E+001   8.57913734E-001   6.70184538E-001   8.57481768E-001
   8.50000000E+001   8.72347171E-001   6.70516656E-001   8.72028209E-001
   9.00000000E+001   8.85027923E-001   6.70750932E-001   8.84788465E-001
   9.50000000E+001   8.96212710E-001   6.70919252E-001   8.96030076E-001
   1.00000000E+002   9.06229303E-001   6.71042223E-001   9.06088095E-001
   1.05000000E+002   9.15133485E-001   6.71133441E-001   9.15022873E-001
   1.10000000E+002   9.23055197E-001   6.71202052E-001   9.22967578E-001
   1.15000000E+002   9.30193676E-001   6.71254319E-001   9.30123525E-001
   1.20000000E+002   9.36581897E-001   6.71294603E-001   9.36525194E-001
   1.25000000E+002   9.42388218E-001   6.71325986E-001   9.42341979E-001
   1.30000000E+002   9.47550700E-001   6.71350678E-001   9.47512677E-001
   1.35000000E+002   9.52224202E-001   6.71370284E-001   9.52192707E-001
   1.40000000E+002   9.56479792E-001   6.71385985E-001   9.56453519E-001
   1.45000000E+002   9.60313316E-001   6.71398659E-001   9.60291255E-001
   1.50000000E+002   9.63824597E-001   6.71408964E-001   9.63805964E-001
   1.55000000E+002   9.67002644E-001   6.71417401E-001   9.66986816E-001
   1.60000000E+002   9.69885892E-001   6.71424353E-001   9.69872376E-001
   1.65000000E+002   9.72491518E-001   6.71430117E-001   9.72479918E-001
   1.70000000E+002   9.74866923E-001   6.71434922E-001   9.74856924E-001
   1.75000000E+002   9.77066847E-001   6.71438950E-001   9.77058190E-001
   1.80000000E+002   9.79033636E-001   6.71442343E-001   9.79026110E-001
   1.85000000E+002   9.80861587E-001   6.71445215E-001   9.80855018E-001
   1.90000000E+002   9.82526836E-001   6.71447658E-001   9.82521082E-001
   1.95000000E+002   9.84042822E-001   6.71449743E-001   9.84037765E-001
   2.00000000E+002   9.85425176E-001   6.71451531E-001   9.85420716E-001
   2.05000000E+002   9.86701165E-001   6.71453070E-001   9.86697220E-001
   2.10000000E+002   9.87840322E-001   6.71454399E-001   9.87836822E-001
   2.15000000E+002   9.88922660E-001   6.71455551E-001   9.88919546E-001
   2.20000000E+002   9.89915853E-001   6.71456554E-001   9.89913075E-001
   2.25000000E+002   9.90789141E-001   6.71457428E-001   9.90786656E-001
   2.30000000E+002   9.91642586E-001   6.71458193E-001   9.91640359E-001
   2.35000000E+002   9.92386749E-001   6.71458865E-001   9.92384747E-001
   2.40000000E+002   9.93084372E-001   6.71459456E-001   9.93082569E-001
   2.45000000E+002   9.93713499E-001   6.71459978E-001   9.93711871E-001
