# ./jetvheto -in n3lo-fixed-order/H125-LHC13-R04-mb-0-mt-1725-xmur200-xmuf100-log.fxd -xQ 0.0625 -out benchmarks-n3lo-smallR/H125-LHC13-R04-mb-0-mt-1725-xmur200-xmuf100-xQ0625-N3LO+NNLLa.R0-1.5.res -scheme a -order 2 -ptmax 500.01 -small-r -fixed_order 3 -loop-mass t -R0 1.5
# process = H    
# collider = pp   
# rts =  13000.000
# M   =    125.000
# muR =    250.000
# muF =    125.000
# Q   =      7.812
# p   =      5.000
# include_c1_squared =   F
# loop_mass  = t   
# alphas(MZ) =    0.11800
# alphas(M) =    0.11264
# alphas(muR) =    0.10244
# Rjet =      0.400
# order = NNLL
# pdf name and set = PDF4LHC15_nnlo_mc.LHgrid,    0
# matching scheme = a
# total cross sections [nb] at LO, NLOdiff, NNLOdiff, N3LOdiff =     0.011501    0.015066    0.010526    0.005600
#----------------------------------------------------------------------
# the lines that follow give the jet-veto efficiencies as a function of pt
#         pt            matched eff      resummed eff     fixed-order eff
   2.00000000E+001   4.90686463E-001   3.68589414E-001   4.90754923E-001
   2.50000000E+001   5.73194634E-001   3.69200279E-001   5.73235191E-001
   3.00000000E+001   6.40103536E-001   3.69379148E-001   6.40126678E-001
   3.50000000E+001   6.92199999E-001   3.69443815E-001   6.92213126E-001
   4.00000000E+001   7.34307741E-001   3.69470950E-001   7.34315482E-001
   4.50000000E+001   7.68565440E-001   3.69483670E-001   7.68570187E-001
   5.00000000E+001   7.97449960E-001   3.69490165E-001   7.97452991E-001
   5.50000000E+001   8.21998409E-001   3.69493716E-001   8.22000414E-001
   6.00000000E+001   8.42762052E-001   3.69495768E-001   8.42763416E-001
   6.50000000E+001   8.61057150E-001   3.69497009E-001   8.61058104E-001
   7.00000000E+001   8.76555302E-001   3.69497791E-001   8.76555984E-001
   7.50000000E+001   8.89675190E-001   3.69498299E-001   8.89675686E-001
   8.00000000E+001   9.01185994E-001   3.69498639E-001   9.01186361E-001
   8.50000000E+001   9.11466259E-001   3.69498873E-001   9.11466536E-001
   9.00000000E+001   9.20328114E-001   3.69499037E-001   9.20328326E-001
   9.50000000E+001   9.28338260E-001   3.69499154E-001   9.28338424E-001
   1.00000000E+002   9.35182229E-001   3.69499240E-001   9.35182357E-001
   1.05000000E+002   9.41306943E-001   3.69499303E-001   9.41307045E-001
   1.10000000E+002   9.46779689E-001   3.69499351E-001   9.46779771E-001
   1.15000000E+002   9.51713302E-001   3.69499387E-001   9.51713368E-001
   1.20000000E+002   9.56037458E-001   3.69499415E-001   9.56037512E-001
   1.25000000E+002   9.59838050E-001   3.69499436E-001   9.59838094E-001
   1.30000000E+002   9.63521482E-001   3.69499453E-001   9.63521519E-001
   1.35000000E+002   9.66767637E-001   3.69499467E-001   9.66767667E-001
   1.40000000E+002   9.69574190E-001   3.69499478E-001   9.69574216E-001
   1.45000000E+002   9.72217486E-001   3.69499487E-001   9.72217507E-001
   1.50000000E+002   9.74498000E-001   3.69499494E-001   9.74498018E-001
   1.55000000E+002   9.76836772E-001   3.69499500E-001   9.76836788E-001
   1.60000000E+002   9.78595467E-001   3.69499504E-001   9.78595480E-001
   1.65000000E+002   9.80370601E-001   3.69499508E-001   9.80370612E-001
   1.70000000E+002   9.81949029E-001   3.69499512E-001   9.81949039E-001
   1.75000000E+002   9.83442842E-001   3.69499514E-001   9.83442850E-001
   1.80000000E+002   9.84818550E-001   3.69499517E-001   9.84818558E-001
   1.85000000E+002   9.86058944E-001   3.69499519E-001   9.86058950E-001
   1.90000000E+002   9.87022115E-001   3.69499520E-001   9.87022120E-001
   1.95000000E+002   9.88119156E-001   3.69499522E-001   9.88119161E-001
   2.00000000E+002   9.89071067E-001   3.69499523E-001   9.89071072E-001
   2.05000000E+002   9.89913551E-001   3.69499524E-001   9.89913555E-001
   2.10000000E+002   9.90670328E-001   3.69499525E-001   9.90670331E-001
   2.15000000E+002   9.91456878E-001   3.69499526E-001   9.91456881E-001
   2.20000000E+002   9.92079253E-001   3.69499527E-001   9.92079255E-001
   2.25000000E+002   9.92702938E-001   3.69499527E-001   9.92702941E-001
   2.30000000E+002   9.93283085E-001   3.69499528E-001   9.93283087E-001
   2.35000000E+002   9.93822034E-001   3.69499528E-001   9.93822036E-001
   2.40000000E+002   9.94228687E-001   3.69499529E-001   9.94228689E-001
   2.45000000E+002   9.94707014E-001   3.69499529E-001   9.94707015E-001
