# ./jetvheto -in n3lo-fixed-order/H125-LHC13-R04-heft-xmur050-xmuf100-log.fxd -xQ 0.50 -out benchmarks-n3lo-smallR/H125-LHC13-R04-heft-xmur050-xmuf100-xQ050-NNLO+NNLLa.res -scheme a -order 2 -ptmax 500.01 -fixed_order 2
# process = H    
# collider = pp   
# rts =  13000.000
# M   =    125.000
# muR =     62.500
# muF =    125.000
# Q   =     62.500
# p   =      5.000
# include_c1_squared =   F
# loop_mass  = none
# alphas(MZ) =    0.11800
# alphas(M) =    0.11264
# alphas(muR) =    0.12516
# Rjet =      0.400
# order = NNLL
# pdf name and set = PDF4LHC15_nnlo_mc.LHgrid,    0
# matching scheme = a
# total cross sections [nb] at LO, NLOdiff, NNLOdiff, N3LOdiff =     0.015984    0.019551    0.008553    0.000949
#----------------------------------------------------------------------
# the lines that follow give the jet-veto efficiencies as a function of pt
#         pt            matched eff      resummed eff     fixed-order eff
   2.00000000E+001   4.78190423E-001   5.06049931E-001   4.60557289E-001
   2.50000000E+001   5.64691127E-001   5.83490830E-001   5.47967086E-001
   3.00000000E+001   6.32357533E-001   6.37700530E-001   6.15938775E-001
   3.50000000E+001   6.85754979E-001   6.75161353E-001   6.69985244E-001
   4.00000000E+001   7.28590410E-001   7.00524563E-001   7.14028235E-001
   4.50000000E+001   7.63199142E-001   7.17213823E-001   7.50288563E-001
   5.00000000E+001   7.91649563E-001   7.27815852E-001   7.80624385E-001
   5.50000000E+001   8.15305421E-001   7.34297396E-001   8.06187879E-001
   6.00000000E+001   8.35434955E-001   7.38118957E-001   8.28085391E-001
   6.50000000E+001   8.52751968E-001   7.40307347E-001   8.46931857E-001
   7.00000000E+001   8.67704658E-001   7.41536481E-001   8.63146333E-001
   7.50000000E+001   8.80834463E-001   7.42220861E-001   8.77281906E-001
   8.00000000E+001   8.92416420E-001   7.42602311E-001   8.89649059E-001
   8.50000000E+001   9.02587136E-001   7.42816705E-001   9.00425349E-001
   9.00000000E+001   9.11713163E-001   7.42938901E-001   9.10015994E-001
   9.50000000E+001   9.19771923E-001   7.43009784E-001   9.18431200E-001
   1.00000000E+002   9.26964263E-001   7.43051724E-001   9.25897663E-001
   1.05000000E+002   9.33404589E-001   7.43077062E-001   9.32549831E-001
   1.10000000E+002   9.39132392E-001   7.43092702E-001   9.38442346E-001
   1.15000000E+002   9.44322406E-001   7.43102564E-001   9.43761259E-001
   1.20000000E+002   9.48958563E-001   7.43108915E-001   9.48499013E-001
   1.25000000E+002   9.53152809E-001   7.43113090E-001   9.52773925E-001
   1.30000000E+002   9.56928496E-001   7.43115890E-001   9.56614098E-001
   1.35000000E+002   9.60372848E-001   7.43117805E-001   9.60110351E-001
   1.40000000E+002   9.63432881E-001   7.43119138E-001   9.63212443E-001
   1.45000000E+002   9.66286681E-001   7.43120084E-001   9.66100537E-001
   1.50000000E+002   9.68807468E-001   7.43120767E-001   9.68649466E-001
   1.55000000E+002   9.71124934E-001   7.43121267E-001   9.70990153E-001
   1.60000000E+002   9.73261063E-001   7.43121640E-001   9.73145550E-001
   1.65000000E+002   9.75187960E-001   7.43121922E-001   9.75088523E-001
   1.70000000E+002   9.76976508E-001   7.43122138E-001   9.76890548E-001
   1.75000000E+002   9.78582715E-001   7.43122306E-001   9.78508110E-001
   1.80000000E+002   9.80078668E-001   7.43122438E-001   9.80013672E-001
   1.85000000E+002   9.81432111E-001   7.43122543E-001   9.81375283E-001
   1.90000000E+002   9.82685219E-001   7.43122627E-001   9.82635363E-001
   1.95000000E+002   9.83863530E-001   7.43122695E-001   9.83819647E-001
   2.00000000E+002   9.84932833E-001   7.43122751E-001   9.84894086E-001
   2.05000000E+002   9.85929255E-001   7.43122798E-001   9.85894943E-001
   2.10000000E+002   9.86837897E-001   7.43122836E-001   9.86807426E-001
   2.15000000E+002   9.87662494E-001   7.43122868E-001   9.87635361E-001
   2.20000000E+002   9.88443922E-001   7.43122896E-001   9.88419700E-001
   2.25000000E+002   9.89161681E-001   7.43122919E-001   9.89140003E-001
   2.30000000E+002   9.89830077E-001   7.43122939E-001   9.89810630E-001
   2.35000000E+002   9.90468261E-001   7.43122956E-001   9.90450776E-001
   2.40000000E+002   9.91039123E-001   7.43122971E-001   9.91023366E-001
   2.45000000E+002   9.91580907E-001   7.43122983E-001   9.91566680E-001
