# ./jetvheto -in n3lo-fixed-order/H125-LHC13-R04-mb-0-mt-1725-xmur025-xmuf050-log.fxd -xQ 0.5 -out benchmarks-n3lo-smallR/H125-LHC13-R04-mb-0-mt-1725-xmur025-xmuf050-xQ050-N3LO+NNLLa.R0-1.5.res -scheme a -order 2 -ptmax 500.01 -small-r -fixed_order 3 -loop-mass t -R0 1.5
# process = H    
# collider = pp   
# rts =  13000.000
# M   =    125.000
# muR =     31.250
# muF =     62.500
# Q   =     62.500
# p   =      5.000
# include_c1_squared =   F
# loop_mass  = t   
# alphas(MZ) =    0.11800
# alphas(M) =    0.11264
# alphas(muR) =    0.14091
# Rjet =      0.400
# order = NNLL
# pdf name and set = PDF4LHC15_nnlo_mc.LHgrid,    0
# matching scheme = a
# total cross sections [nb] at LO, NLOdiff, NNLOdiff, N3LOdiff =     0.019855    0.024744    0.005009   -0.002663
#----------------------------------------------------------------------
# the lines that follow give the jet-veto efficiencies as a function of pt
#         pt            matched eff      resummed eff     fixed-order eff
   2.00000000E+001   4.95324359E-001   5.11331647E-001   4.64441433E-001
   2.50000000E+001   5.73198971E-001   5.75368836E-001   5.46982713E-001
   3.00000000E+001   6.41933235E-001   6.19383576E-001   6.21747969E-001
   3.50000000E+001   6.96136871E-001   6.49217170E-001   6.80660873E-001
   4.00000000E+001   7.36550981E-001   6.68955486E-001   7.24684346E-001
   4.50000000E+001   7.73549740E-001   6.81543978E-001   7.64688533E-001
   5.00000000E+001   8.02438427E-001   6.89196131E-001   7.95840800E-001
   5.50000000E+001   8.28049009E-001   6.93588472E-001   8.23173148E-001
   6.00000000E+001   8.48655890E-001   6.95950321E-001   8.45052906E-001
   6.50000000E+001   8.68991258E-001   6.97125291E-001   8.66318719E-001
   7.00000000E+001   8.83324761E-001   6.97651280E-001   8.81329841E-001
   7.50000000E+001   8.96618917E-001   6.97845549E-001   8.95119563E-001
   8.00000000E+001   9.08953487E-001   6.97882413E-001   9.07814578E-001
   8.50000000E+001   9.20006048E-001   6.97851788E-001   9.19132236E-001
   9.00000000E+001   9.29792277E-001   6.97797637E-001   9.29114976E-001
   9.50000000E+001   9.37053310E-001   6.97739971E-001   9.36524636E-001
   1.00000000E+002   9.44380662E-001   6.97686992E-001   9.43963449E-001
   1.05000000E+002   9.49709764E-001   6.97641364E-001   9.49378223E-001
   1.10000000E+002   9.54744225E-001   6.97603307E-001   9.54478252E-001
   1.15000000E+002   9.59754336E-001   6.97572079E-001   9.59539125E-001
   1.20000000E+002   9.64281096E-001   6.97546651E-001   9.64105612E-001
   1.25000000E+002   9.67768323E-001   6.97526002E-001   9.67624322E-001
   1.30000000E+002   9.70714265E-001   6.97509230E-001   9.70595359E-001
   1.35000000E+002   9.73916589E-001   6.97495577E-001   9.73817644E-001
   1.40000000E+002   9.76841052E-001   6.97484428E-001   9.76758237E-001
   1.45000000E+002   9.79294720E-001   6.97475287E-001   9.79225058E-001
   1.50000000E+002   9.80899121E-001   6.97467761E-001   9.80840244E-001
   1.55000000E+002   9.83223701E-001   6.97461536E-001   9.83173622E-001
   1.60000000E+002   9.85283165E-001   6.97456363E-001   9.85240369E-001
   1.65000000E+002   9.86055146E-001   6.97452046E-001   9.86018475E-001
   1.70000000E+002   9.87627707E-001   6.97448426E-001   9.87596097E-001
   1.75000000E+002   9.89097930E-001   6.97445377E-001   9.89070565E-001
   1.80000000E+002   9.90053926E-001   6.97442798E-001   9.90030165E-001
   1.85000000E+002   9.90924752E-001   6.97440608E-001   9.90904044E-001
   1.90000000E+002   9.91936281E-001   6.97438741E-001   9.91918160E-001
   1.95000000E+002   9.92884655E-001   6.97437142E-001   9.92868747E-001
   2.00000000E+002   9.93696274E-001   6.97435769E-001   9.93682266E-001
   2.05000000E+002   9.94230379E-001   6.97434585E-001   9.94218008E-001
   2.10000000E+002   9.94851669E-001   6.97433561E-001   9.94840712E-001
   2.15000000E+002   9.95218844E-001   6.97432671E-001   9.95209113E-001
   2.20000000E+002   9.96069765E-001   6.97431897E-001   9.96061092E-001
   2.25000000E+002   9.96300241E-001   6.97431221E-001   9.96292501E-001
   2.30000000E+002   9.96706737E-001   6.97430629E-001   9.96699807E-001
   2.35000000E+002   9.96939451E-001   6.97430109E-001   9.96933235E-001
   2.40000000E+002   9.97256495E-001   6.97429650E-001   9.97250905E-001
   2.45000000E+002   9.97732538E-001   6.97429246E-001   9.97727498E-001
