# ./jetvheto -in n3lo-fixed-order/H125-LHC13-R04-mb-475-mt-1725-xmur050-xmuf025-log.fxd -xQ 0.5 -out benchmarks-n3lo-smallR/H125-LHC13-R04-mb-475-mt-1725-xmur050-xmuf025-xQ050-N3LO+NNLLb.R0-1.5.res -scheme b -order 2 -ptmax 500.01 -fixed_order 3 -small-r -loop-mass t+b -R0 1.5
# process = H    
# collider = pp   
# rts =  13000.000
# M   =    125.000
# muR =     62.500
# muF =     31.250
# Q   =     62.500
# p   =      5.000
# include_c1_squared =   F
# loop_mass  = t+b 
# alphas(MZ) =    0.11800
# alphas(M) =    0.11264
# alphas(muR) =    0.12516
# Rjet =      0.400
# order = NNLL
# pdf name and set = PDF4LHC15_nnlo_mc.LHgrid,    0
# matching scheme = b
# total cross sections [nb] at LO, NLOdiff, NNLOdiff, N3LOdiff =     0.012926    0.020318    0.009723    0.001827
#----------------------------------------------------------------------
# the lines that follow give the jet-veto efficiencies as a function of pt
#         pt            matched eff      resummed eff     fixed-order eff
   2.00000000E+001   4.34654247E-001   4.68195069E-001   4.15980545E-001
   2.50000000E+001   5.22991508E-001   5.43591569E-001   5.07800100E-001
   3.00000000E+001   5.93508678E-001   5.97489405E-001   5.80656478E-001
   3.50000000E+001   6.50660494E-001   6.35544521E-001   6.39756651E-001
   4.00000000E+001   6.98033891E-001   6.61974619E-001   6.88975344E-001
   4.50000000E+001   7.37976179E-001   6.79900375E-001   7.30606525E-001
   5.00000000E+001   7.71306712E-001   6.91715018E-001   7.65403404E-001
   5.50000000E+001   8.00400938E-001   6.99282919E-001   7.95769940E-001
   6.00000000E+001   8.24560980E-001   7.04017396E-001   8.20952172E-001
   6.50000000E+001   8.44085903E-001   7.06936772E-001   8.41282612E-001
   7.00000000E+001   8.62513172E-001   7.08731674E-001   8.60356605E-001
   7.50000000E+001   8.78243349E-001   7.09844456E-001   8.76584241E-001
   8.00000000E+001   8.91459765E-001   7.10546512E-001   8.90175714E-001
   8.50000000E+001   9.03712809E-001   7.10999773E-001   9.02715631E-001
   9.00000000E+001   9.14443041E-001   7.11300036E-001   9.13663383E-001
   9.50000000E+001   9.22510404E-001   7.11504206E-001   9.21894582E-001
   1.00000000E+002   9.31266189E-001   7.11646547E-001   9.30777862E-001
   1.05000000E+002   9.38095770E-001   7.11748099E-001   9.37704516E-001
   1.10000000E+002   9.45009839E-001   7.11822075E-001   9.44694592E-001
   1.15000000E+002   9.50976450E-001   7.11876978E-001   9.50720349E-001
   1.20000000E+002   9.55768014E-001   7.11918405E-001   9.55558232E-001
   1.25000000E+002   9.59928458E-001   7.11950129E-001   9.59755469E-001
   1.30000000E+002   9.64163798E-001   7.11974743E-001   9.64020346E-001
   1.35000000E+002   9.67677580E-001   7.11994067E-001   9.67557819E-001
   1.40000000E+002   9.70966281E-001   7.12009399E-001   9.70865759E-001
   1.45000000E+002   9.74013891E-001   7.12021681E-001   9.73929043E-001
   1.50000000E+002   9.76623881E-001   7.12031606E-001   9.76551883E-001
   1.55000000E+002   9.79018266E-001   7.12039690E-001   9.78956876E-001
   1.60000000E+002   9.81512359E-001   7.12046322E-001   9.81459799E-001
   1.65000000E+002   9.83360964E-001   7.12051802E-001   9.83315727E-001
   1.70000000E+002   9.84910539E-001   7.12056356E-001   9.84871440E-001
   1.75000000E+002   9.86740725E-001   7.12060164E-001   9.86706822E-001
   1.80000000E+002   9.87990204E-001   7.12063365E-001   9.87960674E-001
   1.85000000E+002   9.89412193E-001   7.12066070E-001   9.89386397E-001
   1.90000000E+002   9.90544799E-001   7.12068367E-001   9.90522177E-001
   1.95000000E+002   9.91745106E-001   7.12070325E-001   9.91725209E-001
   2.00000000E+002   9.92610872E-001   7.12072002E-001   9.92593312E-001
   2.05000000E+002   9.93456806E-001   7.12073444E-001   9.93441263E-001
   2.10000000E+002   9.94220879E-001   7.12074689E-001   9.94207082E-001
   2.15000000E+002   9.95070660E-001   7.12075767E-001   9.95058385E-001
   2.20000000E+002   9.95670123E-001   7.12076704E-001   9.95659169E-001
   2.25000000E+002   9.96358412E-001   7.12077521E-001   9.96348616E-001
   2.30000000E+002   9.96856103E-001   7.12078236E-001   9.96847320E-001
   2.35000000E+002   9.97226646E-001   7.12078863E-001   9.97218752E-001
   2.40000000E+002   9.97745179E-001   7.12079415E-001   9.97738071E-001
   2.45000000E+002   9.98167130E-001   7.12079902E-001   9.98160716E-001
