# ./jetvheto -in n3lo-fixed-order/H125-LHC13-R04-mb-0-mt-1725-xmur100-xmuf100-log.fxd -xQ 0.5 -out benchmarks-n3lo-smallR/H125-LHC13-R04-mb-0-mt-1725-xmur100-xmuf100-xQ050-NNLO+NNLLb.R0-1.5.res -scheme b -order 2 -ptmax 500.01 -small-r -fixed_order 2 -loop-mass t -R0 1.5
# process = H    
# collider = pp   
# rts =  13000.000
# M   =    125.000
# muR =    125.000
# muF =    125.000
# Q   =     62.500
# p   =      5.000
# include_c1_squared =   F
# loop_mass  = t   
# alphas(MZ) =    0.11800
# alphas(M) =    0.11264
# alphas(muR) =    0.11264
# Rjet =      0.400
# order = NNLL
# pdf name and set = PDF4LHC15_nnlo_mc.LHgrid,    0
# matching scheme = b
# total cross sections [nb] at LO, NLOdiff, NNLOdiff, N3LOdiff =     0.013801    0.017514    0.010146    0.003834
#----------------------------------------------------------------------
# the lines that follow give the jet-veto efficiencies as a function of pt
#         pt            matched eff      resummed eff     fixed-order eff
   2.00000000E+001   4.36192787E-001   5.28985432E-001   3.54033455E-001
   2.50000000E+001   5.19154506E-001   6.10579186E-001   4.61286580E-001
   3.00000000E+001   5.85862967E-001   6.68294253E-001   5.43462220E-001
   3.50000000E+001   6.40357315E-001   7.08622580E-001   6.08508831E-001
   4.00000000E+001   6.85427427E-001   7.36271333E-001   6.61203589E-001
   4.50000000E+001   7.22914350E-001   7.54737356E-001   7.04404447E-001
   5.00000000E+001   7.54633420E-001   7.66686517E-001   7.40494892E-001
   5.50000000E+001   7.81659730E-001   7.74165481E-001   7.70889733E-001
   6.00000000E+001   8.05053902E-001   7.78710974E-001   7.96874542E-001
   6.50000000E+001   8.25411689E-001   7.81417508E-001   8.19206785E-001
   7.00000000E+001   8.43121581E-001   7.83014819E-001   8.38409214E-001
   7.50000000E+001   8.58822867E-001   7.83960566E-001   8.55230292E-001
   8.00000000E+001   8.72716689E-001   7.84528314E-001   8.69962422E-001
   8.50000000E+001   8.84950144E-001   7.84876509E-001   8.82823656E-001
   9.00000000E+001   8.95863926E-001   7.85095745E-001   8.94209219E-001
   9.50000000E+001   9.05528421E-001   7.85237782E-001   9.04230001E-001
   1.00000000E+002   9.14195561E-001   7.85332494E-001   9.13167919E-001
   1.05000000E+002   9.21954746E-001   7.85397421E-001   9.21134551E-001
   1.10000000E+002   9.28831404E-001   7.85443093E-001   9.28171457E-001
   1.15000000E+002   9.35088879E-001   7.85475982E-001   9.34553636E-001
   1.20000000E+002   9.40681579E-001   7.85500169E-001   9.40244216E-001
   1.25000000E+002   9.45749400E-001   7.85518294E-001   9.45389469E-001
   1.30000000E+002   9.50340766E-001   7.85532103E-001   9.50042546E-001
   1.35000000E+002   9.54477064E-001   7.85542781E-001   9.54228420E-001
   1.40000000E+002   9.58221742E-001   7.85551145E-001   9.58013167E-001
   1.45000000E+002   9.61668568E-001   7.85557776E-001   9.61492620E-001
   1.50000000E+002   9.64744797E-001   7.85563086E-001   9.64595577E-001
   1.55000000E+002   9.67592129E-001   7.85567379E-001   9.67464933E-001
   1.60000000E+002   9.70193854E-001   7.85570880E-001   9.70084916E-001
   1.65000000E+002   9.72549367E-001   7.85573757E-001   9.72455647E-001
   1.70000000E+002   9.74715332E-001   7.85576138E-001   9.74634361E-001
   1.75000000E+002   9.76662582E-001   7.85578121E-001   9.76592344E-001
   1.80000000E+002   9.78469741E-001   7.85579783E-001   9.78408580E-001
   1.85000000E+002   9.80109308E-001   7.85581184E-001   9.80055856E-001
   1.90000000E+002   9.81628699E-001   7.85582370E-001   9.81581823E-001
   1.95000000E+002   9.83034047E-001   7.85583379E-001   9.82992805E-001
   2.00000000E+002   9.84307386E-001   7.85584242E-001   9.84270986E-001
   2.05000000E+002   9.85496850E-001   7.85584984E-001   9.85464627E-001
   2.10000000E+002   9.86571940E-001   7.85585622E-001   9.86543334E-001
   2.15000000E+002   9.87552864E-001   7.85586175E-001   9.87527400E-001
   2.20000000E+002   9.88473629E-001   7.85586655E-001   9.88450903E-001
   2.25000000E+002   9.89315942E-001   7.85587073E-001   9.89295609E-001
   2.30000000E+002   9.90096060E-001   7.85587439E-001   9.90077825E-001
   2.35000000E+002   9.90828043E-001   7.85587759E-001   9.90811652E-001
   2.40000000E+002   9.91484658E-001   7.85588041E-001   9.91469891E-001
   2.45000000E+002   9.92102549E-001   7.85588290E-001   9.92089219E-001
