# ./jetvheto -in n3lo-fixed-order/H125-LHC13-R04-mb-0-mt-1725-xmur050-xmuf025-log.fxd -xQ 0.5 -out benchmarks-n3lo-smallR/H125-LHC13-R04-mb-0-mt-1725-xmur050-xmuf025-xQ050-N3LO+NNLLa.R0-0.5.res -scheme a -order 2 -ptmax 500.01 -small-r -fixed_order 3 -loop-mass t -R0 0.5
# process = H    
# collider = pp   
# rts =  13000.000
# M   =    125.000
# muR =     62.500
# muF =     31.250
# Q   =     62.500
# p   =      5.000
# include_c1_squared =   F
# loop_mass  = t   
# alphas(MZ) =    0.11800
# alphas(M) =    0.11264
# alphas(muR) =    0.12516
# Rjet =      0.400
# order = NNLL
# pdf name and set = PDF4LHC15_nnlo_mc.LHgrid,    0
# matching scheme = a
# total cross sections [nb] at LO, NLOdiff, NNLOdiff, N3LOdiff =     0.014513    0.020714    0.009723    0.001827
#----------------------------------------------------------------------
# the lines that follow give the jet-veto efficiencies as a function of pt
#         pt            matched eff      resummed eff     fixed-order eff
   2.00000000E+001   4.50278642E-001   4.80946610E-001   4.54817952E-001
   2.50000000E+001   5.42259935E-001   5.63164743E-001   5.43977450E-001
   3.00000000E+001   6.14632598E-001   6.22147371E-001   6.13968468E-001
   3.50000000E+001   6.72277098E-001   6.63915163E-001   6.70085613E-001
   4.00000000E+001   7.19287713E-001   6.93012573E-001   7.16401980E-001
   4.50000000E+001   7.58198540E-001   7.12820769E-001   7.55172391E-001
   5.00000000E+001   7.90320139E-001   7.25938538E-001   7.87462018E-001
   5.50000000E+001   8.18000694E-001   7.34392618E-001   8.15506260E-001
   6.00000000E+001   8.40778706E-001   7.39721915E-001   8.38678261E-001
   6.50000000E+001   8.59068581E-001   7.43038201E-001   8.57340945E-001
   7.00000000E+001   8.76084442E-001   7.45098481E-001   8.74705056E-001
   7.50000000E+001   8.90594551E-001   7.46390255E-001   8.89504737E-001
   8.00000000E+001   9.02715333E-001   7.47214681E-001   9.01854513E-001
   8.50000000E+001   9.13796988E-001   7.47752948E-001   9.13119046E-001
   9.00000000E+001   9.23547822E-001   7.48113270E-001   9.23012141E-001
   9.50000000E+001   9.30849576E-001   7.48360589E-001   9.30422504E-001
   1.00000000E+002   9.38820455E-001   7.48534429E-001   9.38479882E-001
   1.05000000E+002   9.44979856E-001   7.48659323E-001   9.44705520E-001
   1.10000000E+002   9.51213131E-001   7.48750839E-001   9.50991334E-001
   1.15000000E+002   9.56597416E-001   7.48819090E-001   9.56416694E-001
   1.20000000E+002   9.60873715E-001   7.48870797E-001   9.60725255E-001
   1.25000000E+002   9.64554525E-001   7.48910524E-001   9.64431814E-001
   1.30000000E+002   9.68336788E-001   7.48941431E-001   9.68234866E-001
   1.35000000E+002   9.71466495E-001   7.48965749E-001   9.71381270E-001
   1.40000000E+002   9.74421104E-001   7.48985079E-001   9.74349482E-001
   1.45000000E+002   9.77130192E-001   7.49000586E-001   9.77069676E-001
   1.50000000E+002   9.79437009E-001   7.49013133E-001   9.79385612E-001
   1.55000000E+002   9.81553310E-001   7.49023363E-001   9.81509453E-001
   1.60000000E+002   9.83769897E-001   7.49031764E-001   9.83732332E-001
   1.65000000E+002   9.85410778E-001   7.49038709E-001   9.85378426E-001
   1.70000000E+002   9.86765966E-001   7.49044486E-001   9.86737985E-001
   1.75000000E+002   9.88391866E-001   7.49049318E-001   9.88367598E-001
   1.80000000E+002   9.89501622E-001   7.49053381E-001   9.89480472E-001
   1.85000000E+002   9.90768489E-001   7.49056816E-001   9.90750010E-001
   1.90000000E+002   9.91769090E-001   7.49059733E-001   9.91752879E-001
   1.95000000E+002   9.92841496E-001   7.49062222E-001   9.92827236E-001
   2.00000000E+002   9.93596918E-001   7.49064353E-001   9.93584329E-001
   2.05000000E+002   9.94344024E-001   7.49066186E-001   9.94332879E-001
   2.10000000E+002   9.95025272E-001   7.49067769E-001   9.95015376E-001
   2.15000000E+002   9.95774415E-001   7.49069140E-001   9.95765611E-001
   2.20000000E+002   9.96296377E-001   7.49070332E-001   9.96288520E-001
   2.25000000E+002   9.96917853E-001   7.49071371E-001   9.96910826E-001
   2.30000000E+002   9.97356369E-001   7.49072280E-001   9.97350068E-001
   2.35000000E+002   9.97666367E-001   7.49073078E-001   9.97660702E-001
   2.40000000E+002   9.98123194E-001   7.49073780E-001   9.98118094E-001
   2.45000000E+002   9.98508017E-001   7.49074399E-001   9.98503414E-001
