# ./jetvheto -in n3lo-fixed-order/H125-LHC13-R04-mb-475-mt-1725-xmur050-xmuf100-log.fxd -xQ 0.25 -out benchmarks-n3lo-smallR/H125-LHC13-R04-mb-475-mt-1725-xmur050-xmuf100-xQ025-N3LO+NNLLb.R0-2.0.res -scheme b -order 2 -ptmax 500.01 -fixed_order 3 -small-r -loop-mass t+b -R0 2.0
# process = H    
# collider = pp   
# rts =  13000.000
# M   =    125.000
# muR =     62.500
# muF =    125.000
# Q   =     31.250
# p   =      5.000
# include_c1_squared =   F
# loop_mass  = t+b 
# alphas(MZ) =    0.11800
# alphas(M) =    0.11264
# alphas(muR) =    0.12516
# Rjet =      0.400
# order = NNLL
# pdf name and set = PDF4LHC15_nnlo_mc.LHgrid,    0
# matching scheme = b
# total cross sections [nb] at LO, NLOdiff, NNLOdiff, N3LOdiff =     0.015023    0.020252    0.008553    0.000949
#----------------------------------------------------------------------
# the lines that follow give the jet-veto efficiencies as a function of pt
#         pt            matched eff      resummed eff     fixed-order eff
   2.00000000E+001   4.29722364E-001   4.83877187E-001   4.22022001E-001
   2.50000000E+001   5.14706414E-001   5.47967950E-001   5.10305136E-001
   3.00000000E+001   5.90338797E-001   5.85684226E-001   5.88327259E-001
   3.50000000E+001   6.49268499E-001   6.06219494E-001   6.48206817E-001
   4.00000000E+001   6.97166755E-001   6.17010086E-001   6.96568548E-001
   4.50000000E+001   7.36162955E-001   6.22713875E-001   7.35802106E-001
   5.00000000E+001   7.69607466E-001   6.25821143E-001   7.69386078E-001
   5.50000000E+001   7.98452309E-001   6.27581818E-001   7.98313706E-001
   6.00000000E+001   8.22639351E-001   6.28620521E-001   8.22547640E-001
   6.50000000E+001   8.44679882E-001   6.29256930E-001   8.44619571E-001
   7.00000000E+001   8.63100401E-001   6.29660441E-001   8.63058779E-001
   7.50000000E+001   8.77951516E-001   6.29924227E-001   8.77921035E-001
   8.00000000E+001   8.91076137E-001   6.30101418E-001   8.91053486E-001
   8.50000000E+001   9.03143269E-001   6.30223352E-001   9.03126493E-001
   9.00000000E+001   9.13258133E-001   6.30309088E-001   9.13245267E-001
   9.50000000E+001   9.22711841E-001   6.30370545E-001   9.22702012E-001
   1.00000000E+002   9.30326649E-001   6.30415370E-001   9.30318877E-001
   1.05000000E+002   9.37209105E-001   6.30448580E-001   9.37202914E-001
   1.10000000E+002   9.43445432E-001   6.30473536E-001   9.43440479E-001
   1.15000000E+002   9.49020078E-001   6.30492534E-001   9.49016071E-001
   1.20000000E+002   9.53757921E-001   6.30507169E-001   9.53754638E-001
   1.25000000E+002   9.57797980E-001   6.30518566E-001   9.57795252E-001
   1.30000000E+002   9.62079904E-001   6.30527530E-001   9.62077662E-001
   1.35000000E+002   9.65784350E-001   6.30534645E-001   9.65782485E-001
   1.40000000E+002   9.68764520E-001   6.30540343E-001   9.68762947E-001
   1.45000000E+002   9.71688967E-001   6.30544941E-001   9.71687638E-001
   1.50000000E+002   9.74090171E-001   6.30548679E-001   9.74089037E-001
   1.55000000E+002   9.76919740E-001   6.30551739E-001   9.76918783E-001
   1.60000000E+002   9.78486145E-001   6.30554261E-001   9.78485312E-001
   1.65000000E+002   9.80406029E-001   6.30556351E-001   9.80405311E-001
   1.70000000E+002   9.82027310E-001   6.30558094E-001   9.82026686E-001
   1.75000000E+002   9.83689811E-001   6.30559554E-001   9.83689270E-001
   1.80000000E+002   9.85195336E-001   6.30560784E-001   9.85194866E-001
   1.85000000E+002   9.86548759E-001   6.30561826E-001   9.86548347E-001
   1.90000000E+002   9.87302401E-001   6.30562711E-001   9.87302036E-001
   1.95000000E+002   9.88556588E-001   6.30563467E-001   9.88556267E-001
   2.00000000E+002   9.89580034E-001   6.30564116E-001   9.89579750E-001
   2.05000000E+002   9.90408211E-001   6.30564674E-001   9.90407959E-001
   2.10000000E+002   9.91151661E-001   6.30565156E-001   9.91151437E-001
   2.15000000E+002   9.92075402E-001   6.30565573E-001   9.92075203E-001
   2.20000000E+002   9.92639480E-001   6.30565937E-001   9.92639301E-001
   2.25000000E+002   9.93299319E-001   6.30566254E-001   9.93299159E-001
   2.30000000E+002   9.93914690E-001   6.30566531E-001   9.93914547E-001
   2.35000000E+002   9.94476709E-001   6.30566775E-001   9.94476580E-001
   2.40000000E+002   9.94777151E-001   6.30566989E-001   9.94777034E-001
   2.45000000E+002   9.95317478E-001   6.30567178E-001   9.95317372E-001
