# python build-Q2-histos.py --mtQ1file ../../JetVHeto/benchmarks-n3lo-smallR/H125-LHC13-R04-mb-0-mt-1725-xmur100-xmuf100-xQ050-N3LO+NNLLa.R0-1.0.res --mtQ2file ../../JetVHeto/benchmarks-n3lo-smallR/H125-LHC13-R04-mb-0-mt-1725-xmur100-xmuf100-xQ025-N3LO+NNLLa.R0-1.0.res --mtmbQ2file ../../JetVHeto/benchmarks-n3lo-smallR/H125-LHC13-R04-mb-475-mt-1725-xmur100-xmuf100-xQ025-N3LO+NNLLa.R0-1.0.res
# process = H    
# collider = pp   
# rts =  13000.000
# M   =    125.000
# muR =    125.000
# muF =    125.000
# Q1  =  62.500; Q2  =  31.250
# p   =      5.000
# include_c1_squared =   F
# loop_mass  = t+b 
# alphas(MZ) =    0.11800
# alphas(M) =    0.11264
# alphas(muR) =    0.11264
# Rjet =      0.400
# order = NNLL
# pdf name and set = PDF4LHC15_nnlo_mc.LHgrid,    0
# matching scheme = a
# total cross sections [nb] at LO, NLOdiff, NNLOdiff, N3LOdiff =     0.012292    0.016994    0.010146    0.003834
#----------------------------------------------------------------------
# the lines that follow give the jet-veto efficiencies as a function of pt
#         pt            matched eff      resummed eff     fixed-order eff
20.0 0.449900999586 0.501553413162 0.451319368
25.0 0.53729040842 0.581714786572 0.536825698
30.0 0.610472690971 0.639282136775 0.608858675
35.0 0.667792932173 0.680155574251 0.66494754
40.0 0.713875388794 0.708557168303 0.710355778
45.0 0.751147852158 0.727717515649 0.747456588
50.0 0.782461913657 0.740208788387 0.778978104
55.0 0.809002642785 0.748073852243 0.80593082
60.0 0.831308319678 0.752879642779 0.82871707
65.0 0.85117975457 0.755756444299 0.849064316
70.0 0.867962061718 0.757463874231 0.866268025
75.0 0.881872923509 0.758481057632 0.880530885
80.0 0.894174280817 0.759095755758 0.893116387
85.0 0.905295485881 0.759475385447 0.904462211
90.0 0.914851894422 0.759716123224 0.914193494
95.0 0.923605034226 0.759873188152 0.92308248
100.0 0.930928378996 0.759978622566 0.930511231
105.0 0.93753600671 0.760051349454 0.937200842
110.0 0.943469543783 0.760102793549 0.943198469
115.0 0.948808386706 0.760140022505 0.948587632
120.0 0.953418837645 0.760167519377 0.953237889
125.0 0.957464562971 0.760188200902 0.957315271
130.0 0.961490765648 0.760204008773 0.961366818
135.0 0.965040152943 0.760216262566 0.964936627
140.0 0.968016130255 0.760225885728 0.96792919
145.0 0.970872863647 0.760233527765 0.970799436
150.0 0.973294234557 0.760239656963 0.973231918
155.0 0.975898194539 0.760244620027 0.975845039
160.0 0.977661186944 0.760248670459 0.977615642
165.0 0.979562883343 0.760252003824 0.979523686
170.0 0.981224669342 0.760254764466 0.981190793
175.0 0.982842855312 0.760257064262 0.982813463
180.0 0.984318311312 0.760258993664 0.984292712
185.0 0.98565196676 0.760260620752 0.985629591
190.0 0.986585656922 0.760261998276 0.986566035
195.0 0.987786878701 0.760263170939 0.987769612
200.0 0.988806517675 0.760264175305 0.988791277
205.0 0.989680897592 0.7602650377 0.989667405
210.0 0.990470839295 0.760265780455 0.990458863
215.0 0.99133396733 0.760266423896 0.991323305
220.0 0.991965107103 0.760266981165 0.991955592
225.0 0.992628095629 0.760267468543 0.992619584
230.0 0.993243564877 0.760267895076 0.993235932
235.0 0.993811664095 0.76026826686 0.993804803
240.0 0.994198920534 0.760268595127 0.99419274
245.0 0.994719189631 0.760268884879 0.99471361
