# ./jetvheto -in n3lo-fixed-order/H125-LHC13-R04-mb-475-mt-1725-xmur050-xmuf050-log.fxd -xQ 1.0 -out benchmarks-n3lo-smallR/H125-LHC13-R04-mb-475-mt-1725-xmur050-xmuf050-xQ100-N3LO+NNLLa.R0-1.0.res -scheme a -order 2 -ptmax 500.01 -fixed_order 3 -small-r -loop-mass t+b -R0 1.0
# process = H    
# collider = pp   
# rts =  13000.000
# M   =    125.000
# muR =     62.500
# muF =     62.500
# Q   =    125.000
# p   =      5.000
# include_c1_squared =   F
# loop_mass  = t+b 
# alphas(MZ) =    0.11800
# alphas(M) =    0.11264
# alphas(muR) =    0.12516
# Rjet =      0.400
# order = NNLL
# pdf name and set = PDF4LHC15_nnlo_mc.LHgrid,    0
# matching scheme = a
# total cross sections [nb] at LO, NLOdiff, NNLOdiff, N3LOdiff =     0.014147    0.020254    0.008998    0.001413
#----------------------------------------------------------------------
# the lines that follow give the jet-veto efficiencies as a function of pt
#         pt            matched eff      resummed eff     fixed-order eff
   2.00000000E+001   4.86528835E-001   5.86260112E-001   4.41074844E-001
   2.50000000E+001   5.70642100E-001   6.63143365E-001   5.26291803E-001
   3.00000000E+001   6.41665481E-001   7.15780049E-001   5.99588615E-001
   3.50000000E+001   6.97817478E-001   7.51420829E-001   6.58104134E-001
   4.00000000E+001   7.40742333E-001   7.75027310E-001   7.03699261E-001
   4.50000000E+001   7.78329552E-001   7.89955111E-001   7.43908515E-001
   5.00000000E+001   8.07916923E-001   7.98544971E-001   7.76267730E-001
   5.50000000E+001   8.33455116E-001   8.02478769E-001   8.04438345E-001
   6.00000000E+001   8.54038756E-001   8.02980700E-001   8.27667847E-001
   6.50000000E+001   8.73108739E-001   8.00967869E-001   8.49073502E-001
   7.00000000E+001   8.87365430E-001   7.97143646E-001   8.65767048E-001
   7.50000000E+001   9.00056882E-001   7.92049986E-001   8.80674091E-001
   8.00000000E+001   9.11509458E-001   7.86114503E-001   8.94138038E-001
   8.50000000E+001   9.21625369E-001   7.79680754E-001   9.06106835E-001
   9.00000000E+001   9.30421974E-001   7.73025366E-001   9.16611008E-001
   9.50000000E+001   9.37253179E-001   7.66368595E-001   9.25078477E-001
   1.00000000E+002   9.43833851E-001   7.59883995E-001   9.33101787E-001
   1.05000000E+002   9.48969479E-001   7.53702289E-001   9.39585604E-001
   1.10000000E+002   9.53688428E-001   7.47916021E-001   9.45495190E-001
   1.15000000E+002   9.58246621E-001   7.42584618E-001   9.51094105E-001
   1.20000000E+002   9.62340168E-001   7.37737719E-001   9.56107678E-001
   1.25000000E+002   9.65704703E-001   7.33381495E-001   9.60296277E-001
   1.30000000E+002   9.68624648E-001   7.29504071E-001   9.63938023E-001
   1.35000000E+002   9.71617686E-001   7.26080466E-001   9.67546891E-001
   1.40000000E+002   9.74366468E-001   7.23077188E-001   9.70830250E-001
   1.45000000E+002   9.76735077E-001   7.20456089E-001   9.73664645E-001
   1.50000000E+002   9.78549026E-001   7.18177377E-001   9.75887820E-001
   1.55000000E+002   9.80730903E-001   7.16201814E-001   9.78411529E-001
   1.60000000E+002   9.82692034E-001   7.14492188E-001   9.80668095E-001
   1.65000000E+002   9.83834455E-001   7.13014148E-001   9.82074144E-001
   1.70000000E+002   9.85390645E-001   7.11736743E-001   9.83850040E-001
   1.75000000E+002   9.86872106E-001   7.10632502E-001   9.85520635E-001
   1.80000000E+002   9.87983332E-001   7.09677279E-001   9.86797346E-001
   1.85000000E+002   9.89018562E-001   7.08850078E-001   9.87975392E-001
   1.90000000E+002   9.90093023E-001   7.08132758E-001   9.89172337E-001
   1.95000000E+002   9.91089335E-001   7.07509728E-001   9.90274812E-001
   2.00000000E+002   9.91968434E-001   7.06967631E-001   9.91246363E-001
   2.05000000E+002   9.92663410E-001   7.06495054E-001   9.92022417E-001
   2.10000000E+002   9.93366118E-001   7.06082257E-001   9.92795408E-001
   2.15000000E+002   9.93911705E-001   7.05720931E-001   9.93402921E-001
   2.20000000E+002   9.94715011E-001   7.05403992E-001   9.94259310E-001
   2.25000000E+002   9.95114324E-001   7.05125398E-001   9.94706379E-001
   2.30000000E+002   9.95615662E-001   7.04879987E-001   9.95249343E-001
   2.35000000E+002   9.95983423E-001   7.04663348E-001   9.95654001E-001
   2.40000000E+002   9.96384962E-001   7.04471705E-001   9.96087982E-001
   2.45000000E+002   9.96854193E-001   7.04301824E-001   9.96585702E-001
