# ./jetvheto -in n3lo-fixed-order/H125-LHC13-R04-mb-475-mt-1725-xmur200-xmuf200-log.fxd -xQ 0.25 -out benchmarks-n3lo-smallR/H125-LHC13-R04-mb-475-mt-1725-xmur200-xmuf200-xQ025-NNLO+NNLLa.R0-2.0.res -scheme a -order 2 -ptmax 500.01 -fixed_order 2 -small-r -loop-mass t+b -R0 2.0
# process = H    
# collider = pp   
# rts =  13000.000
# M   =    125.000
# muR =    250.000
# muF =    250.000
# Q   =     31.250
# p   =      5.000
# include_c1_squared =   F
# loop_mass  = t+b 
# alphas(MZ) =    0.11800
# alphas(M) =    0.11264
# alphas(muR) =    0.10244
# Rjet =      0.400
# order = NNLL
# pdf name and set = PDF4LHC15_nnlo_mc.LHgrid,    0
# matching scheme = a
# total cross sections [nb] at LO, NLOdiff, NNLOdiff, N3LOdiff =     0.010658    0.014649    0.010464    0.005358
#----------------------------------------------------------------------
# the lines that follow give the jet-veto efficiencies as a function of pt
#         pt            matched eff      resummed eff     fixed-order eff
   2.00000000E+001   5.11745654E-001   5.67789416E-001   5.35127193E-001
   2.50000000E+001   5.97047379E-001   6.38936194E-001   6.12011630E-001
   3.00000000E+001   6.61611051E-001   6.80423020E-001   6.70544774E-001
   3.50000000E+001   7.11652737E-001   7.02867685E-001   7.16922826E-001
   4.00000000E+001   7.51287861E-001   7.14613696E-001   7.54454779E-001
   4.50000000E+001   7.83421312E-001   7.20807597E-001   7.85384748E-001
   5.00000000E+001   8.09994735E-001   7.24177174E-001   8.11251726E-001
   5.50000000E+001   8.32263357E-001   7.26084959E-001   8.33093904E-001
   6.00000000E+001   8.51102979E-001   7.27209925E-001   8.51667304E-001
   6.50000000E+001   8.67303660E-001   7.27898994E-001   8.67697021E-001
   7.00000000E+001   8.81333509E-001   7.28335817E-001   8.81614063E-001
   7.50000000E+001   8.93504996E-001   7.28621347E-001   8.93709135E-001
   8.00000000E+001   9.04198944E-001   7.28813130E-001   9.04350221E-001
   8.50000000E+001   9.13546029E-001   7.28945098E-001   9.13659935E-001
   9.00000000E+001   9.21800504E-001   7.29037886E-001   9.21887551E-001
   9.50000000E+001   9.29096124E-001   7.29104397E-001   9.29163519E-001
   1.00000000E+002   9.35543294E-001   7.29152906E-001   9.35596095E-001
   1.05000000E+002   9.41356405E-001   7.29188846E-001   9.41398238E-001
   1.10000000E+002   9.46530676E-001   7.29215853E-001   9.46564151E-001
   1.15000000E+002   9.51180379E-001   7.29236413E-001   9.51207413E-001
   1.20000000E+002   9.55344476E-001   7.29252250E-001   9.55366494E-001
   1.25000000E+002   9.59085771E-001   7.29264583E-001   9.59103844E-001
   1.30000000E+002   9.62462827E-001   7.29274283E-001   9.62477770E-001
   1.35000000E+002   9.65538174E-001   7.29281984E-001   9.65550615E-001
   1.40000000E+002   9.68317333E-001   7.29288149E-001   9.68327755E-001
   1.45000000E+002   9.70834162E-001   7.29293125E-001   9.70842945E-001
   1.50000000E+002   9.73133593E-001   7.29297170E-001   9.73141036E-001
   1.55000000E+002   9.75221724E-001   7.29300482E-001   9.75228063E-001
   1.60000000E+002   9.77140199E-001   7.29303211E-001   9.77145625E-001
   1.65000000E+002   9.78891694E-001   7.29305473E-001   9.78896359E-001
   1.70000000E+002   9.80486968E-001   7.29307358E-001   9.80490997E-001
   1.75000000E+002   9.81924346E-001   7.29308939E-001   9.81927840E-001
   1.80000000E+002   9.83268456E-001   7.29310270E-001   9.83271498E-001
   1.85000000E+002   9.84501871E-001   7.29311397E-001   9.84504528E-001
   1.90000000E+002   9.85616438E-001   7.29312355E-001   9.85618768E-001
   1.95000000E+002   9.86649659E-001   7.29313174E-001   9.86651708E-001
   2.00000000E+002   9.87591214E-001   7.29313875E-001   9.87593023E-001
   2.05000000E+002   9.88466393E-001   7.29314479E-001   9.88467994E-001
   2.10000000E+002   9.89274932E-001   7.29315000E-001   9.89276353E-001
   2.15000000E+002   9.90019565E-001   7.29315453E-001   9.90020830E-001
   2.20000000E+002   9.90704337E-001   7.29315846E-001   9.90705465E-001
   2.25000000E+002   9.91332320E-001   7.29316189E-001   9.91333330E-001
   2.30000000E+002   9.91922518E-001   7.29316489E-001   9.91923423E-001
   2.35000000E+002   9.92473057E-001   7.29316752E-001   9.92473871E-001
   2.40000000E+002   9.92960064E-001   7.29316984E-001   9.92960797E-001
   2.45000000E+002   9.93426569E-001   7.29317189E-001   9.93427231E-001
