# ./jetvheto -in n3lo-fixed-order/H125-LHC13-R04-mb-0-mt-1725-xmur025-xmuf025-log.fxd -xQ 0.5 -out benchmarks-n3lo-smallR/H125-LHC13-R04-mb-0-mt-1725-xmur025-xmuf025-xQ050-NNLO+NNLLb.R0-2.0.res -scheme b -order 2 -ptmax 500.01 -small-r -fixed_order 2 -loop-mass t -R0 2.0
# process = H    
# collider = pp   
# rts =  13000.000
# M   =    125.000
# muR =     31.250
# muF =     31.250
# Q   =     62.500
# p   =      5.000
# include_c1_squared =   F
# loop_mass  = t   
# alphas(MZ) =    0.11800
# alphas(M) =    0.11264
# alphas(muR) =    0.14091
# Rjet =      0.400
# order = NNLL
# pdf name and set = PDF4LHC15_nnlo_mc.LHgrid,    0
# matching scheme = b
# total cross sections [nb] at LO, NLOdiff, NNLOdiff, N3LOdiff =     0.018140    0.025356    0.006043   -0.002471
#----------------------------------------------------------------------
# the lines that follow give the jet-veto efficiencies as a function of pt
#         pt            matched eff      resummed eff     fixed-order eff
   2.00000000E+001   4.76286808E-001   5.16122794E-001   3.51600386E-001
   2.50000000E+001   5.50518743E-001   5.78778928E-001   4.53985492E-001
   3.00000000E+001   6.10149464E-001   6.22241513E-001   5.35336815E-001
   3.50000000E+001   6.59267266E-001   6.51942670E-001   6.01450914E-001
   4.00000000E+001   7.00162081E-001   6.71782482E-001   6.55707630E-001
   4.50000000E+001   7.34740252E-001   6.84584266E-001   7.00809251E-001
   5.00000000E+001   7.64490965E-001   6.92480819E-001   7.38750758E-001
   5.50000000E+001   7.90273516E-001   6.97105650E-001   7.70859819E-001
   6.00000000E+001   8.12956256E-001   6.99666199E-001   7.98354652E-001
   6.50000000E+001   8.33031247E-001   7.01001102E-001   8.22044881E-001
   7.00000000E+001   8.50889117E-001   7.01650869E-001   8.42597642E-001
   7.50000000E+001   8.66540194E-001   7.01938659E-001   8.60248412E-001
   8.00000000E+001   8.80689824E-001   7.02045461E-001   8.75880788E-001
   8.50000000E+001   8.93205510E-001   7.02067012E-001   8.89499593E-001
   9.00000000E+001   9.04409711E-001   7.02051765E-001   9.01528041E-001
   9.50000000E+001   9.14273757E-001   7.02023208E-001   9.12012715E-001
   1.00000000E+002   9.23168051E-001   7.01992149E-001   9.21377846E-001
   1.05000000E+002   9.31154039E-001   7.01963156E-001   9.29724151E-001
   1.10000000E+002   9.38248499E-001   7.01937831E-001   9.37096897E-001
   1.15000000E+002   9.44682920E-001   7.01916431E-001   9.43747922E-001
   1.20000000E+002   9.50433406E-001   7.01898656E-001   9.49668478E-001
   1.25000000E+002   9.55498052E-001   7.01884017E-001   9.54867796E-001
   1.30000000E+002   9.60125916E-001   7.01872003E-001   9.59603121E-001
   1.35000000E+002   9.64288244E-001   7.01862147E-001   9.63851855E-001
   1.40000000E+002   9.68037993E-001   7.01854051E-001   9.67671517E-001
   1.45000000E+002   9.71472014E-001   7.01847383E-001   9.71162513E-001
   1.50000000E+002   9.74518838E-001   7.01841872E-001   9.74256073E-001
   1.55000000E+002   9.77276650E-001   7.01837301E-001   9.77052447E-001
   1.60000000E+002   9.79799743E-001   7.01833494E-001   9.79607538E-001
   1.65000000E+002   9.82089195E-001   7.01830310E-001   9.81923690E-001
   1.70000000E+002   9.84120699E-001   7.01827636E-001   9.83977585E-001
   1.75000000E+002   9.85980099E-001   7.01825381E-001   9.85855855E-001
   1.80000000E+002   9.87666423E-001   7.01823472E-001   9.87558150E-001
   1.85000000E+002   9.89172293E-001   7.01821849E-001   9.89077597E-001
   1.90000000E+002   9.90570235E-001   7.01820464E-001   9.90487132E-001
   1.95000000E+002   9.91853502E-001   7.01819277E-001   9.91780336E-001
   2.00000000E+002   9.92987654E-001   7.01818258E-001   9.92923037E-001
   2.05000000E+002   9.94045552E-001   7.01817378E-001   9.93988317E-001
   2.10000000E+002   9.95017626E-001   7.01816617E-001   9.94966787E-001
   2.15000000E+002   9.95841008E-001   7.01815955E-001   9.95795730E-001
   2.20000000E+002   9.96625975E-001   7.01815380E-001   9.96585546E-001
   2.25000000E+002   9.97349549E-001   7.01814877E-001   9.97313360E-001
   2.30000000E+002   9.97976233E-001   7.01814436E-001   9.97943763E-001
   2.35000000E+002   9.98546433E-001   7.01814049E-001   9.98517235E-001
   2.40000000E+002   9.99052633E-001   7.01813708E-001   9.99026319E-001
   2.45000000E+002   9.99526714E-001   7.01813407E-001   9.99502951E-001
