# ./jetvheto -in n3lo-fixed-order/H125-LHC13-R04-mb-0-mt-1725-xmur100-xmuf050-log.fxd -xQ 0.25 -out benchmarks-n3lo-smallR/H125-LHC13-R04-mb-0-mt-1725-xmur100-xmuf050-xQ025-N3LO+NNLLb.R0-1.5.res -scheme b -order 2 -ptmax 500.01 -small-r -fixed_order 3 -loop-mass t -R0 1.5
# process = H    
# collider = pp   
# rts =  13000.000
# M   =    125.000
# muR =    125.000
# muF =     62.500
# Q   =     31.250
# p   =      5.000
# include_c1_squared =   F
# loop_mass  = t   
# alphas(MZ) =    0.11800
# alphas(M) =    0.11264
# alphas(muR) =    0.11264
# Rjet =      0.400
# order = NNLL
# pdf name and set = PDF4LHC15_nnlo_mc.LHgrid,    0
# matching scheme = b
# total cross sections [nb] at LO, NLOdiff, NNLOdiff, N3LOdiff =     0.012997    0.017347    0.010424    0.004163
#----------------------------------------------------------------------
# the lines that follow give the jet-veto efficiencies as a function of pt
#         pt            matched eff      resummed eff     fixed-order eff
   2.00000000E+001   4.32824329E-001   5.33623111E-001   4.15356219E-001
   2.50000000E+001   5.17691320E-001   6.07834139E-001   5.08719955E-001
   3.00000000E+001   5.89499031E-001   6.51798313E-001   5.85226468E-001
   3.50000000E+001   6.48051915E-001   6.75849762E-001   6.45994416E-001
   4.00000000E+001   6.94972382E-001   6.88525356E-001   6.93925358E-001
   4.50000000E+001   7.35414866E-001   6.95236770E-001   7.34878042E-001
   5.00000000E+001   7.68752565E-001   6.98896482E-001   7.68458672E-001
   5.50000000E+001   7.97159699E-001   7.00971339E-001   7.96994090E-001
   6.00000000E+001   8.20986426E-001   7.02195789E-001   8.20887675E-001
   6.50000000E+001   8.42453947E-001   7.02946153E-001   8.42394793E-001
   7.00000000E+001   8.59778021E-001   7.03421976E-001   8.59739714E-001
   7.50000000E+001   8.75064919E-001   7.03733057E-001   8.75039666E-001
   8.00000000E+001   8.88716791E-001   7.03942030E-001   8.88699874E-001
   8.50000000E+001   9.00799318E-001   7.04085839E-001   9.00787747E-001
   9.00000000E+001   9.11453108E-001   7.04186958E-001   9.11445028E-001
   9.50000000E+001   9.20288780E-001   7.04259444E-001   9.20282864E-001
   1.00000000E+002   9.28524370E-001   7.04312313E-001   9.28520035E-001
   1.05000000E+002   9.35321388E-001   7.04351483E-001   9.35318080E-001
   1.10000000E+002   9.41499766E-001   7.04380919E-001   9.41497221E-001
   1.15000000E+002   9.47227767E-001   7.04403328E-001   9.47225803E-001
   1.20000000E+002   9.52387801E-001   7.04420589E-001   9.52386268E-001
   1.25000000E+002   9.56838934E-001   7.04434032E-001   9.56837706E-001
   1.30000000E+002   9.60719712E-001   7.04444605E-001   9.60718713E-001
   1.35000000E+002   9.64427901E-001   7.04452998E-001   9.64427093E-001
   1.40000000E+002   9.67811436E-001   7.04459718E-001   9.67810777E-001
   1.45000000E+002   9.70810184E-001   7.04465141E-001   9.70809639E-001
   1.50000000E+002   9.73313881E-001   7.04469550E-001   9.73313419E-001
   1.55000000E+002   9.75895930E-001   7.04473160E-001   9.75895546E-001
   1.60000000E+002   9.78223120E-001   7.04476134E-001   9.78222797E-001
   1.65000000E+002   9.79916995E-001   7.04478600E-001   9.79916714E-001
   1.70000000E+002   9.81799107E-001   7.04480655E-001   9.81798867E-001
   1.75000000E+002   9.83523046E-001   7.04482378E-001   9.83522840E-001
   1.80000000E+002   9.84938321E-001   7.04483829E-001   9.84938142E-001
   1.85000000E+002   9.86243836E-001   7.04485057E-001   9.86243680E-001
   1.90000000E+002   9.87518229E-001   7.04486102E-001   9.87518092E-001
   1.95000000E+002   9.88690766E-001   7.04486994E-001   9.88690647E-001
   2.00000000E+002   9.89742882E-001   7.04487758E-001   9.89742777E-001
   2.05000000E+002   9.90628169E-001   7.04488416E-001   9.90628076E-001
   2.10000000E+002   9.91475368E-001   7.04488985E-001   9.91475286E-001
   2.15000000E+002   9.92193954E-001   7.04489478E-001   9.92193880E-001
   2.20000000E+002   9.93044338E-001   7.04489906E-001   9.93044272E-001
   2.25000000E+002   9.93602850E-001   7.04490280E-001   9.93602792E-001
   2.30000000E+002   9.94218317E-001   7.04490607E-001   9.94218265E-001
   2.35000000E+002   9.94704431E-001   7.04490895E-001   9.94704384E-001
   2.40000000E+002   9.95200605E-001   7.04491147E-001   9.95200562E-001
   2.45000000E+002   9.95724346E-001   7.04491370E-001   9.95724307E-001
