# ./jetvheto -in n3lo-fixed-order/H125-LHC13-R04-mb-0-mt-1725-xmur100-xmuf100-log.fxd -xQ 0.125 -out benchmarks-n3lo-smallR/H125-LHC13-R04-mb-0-mt-1725-xmur100-xmuf100-xQ125-NNLO+NNLLb.R0-0.5.res -scheme b -order 2 -ptmax 500.01 -small-r -fixed_order 2 -loop-mass t -R0 0.5
# process = H    
# collider = pp   
# rts =  13000.000
# M   =    125.000
# muR =    125.000
# muF =    125.000
# Q   =     15.625
# p   =      5.000
# include_c1_squared =   F
# loop_mass  = t   
# alphas(MZ) =    0.11800
# alphas(M) =    0.11264
# alphas(muR) =    0.11264
# Rjet =      0.400
# order = NNLL
# pdf name and set = PDF4LHC15_nnlo_mc.LHgrid,    0
# matching scheme = b
# total cross sections [nb] at LO, NLOdiff, NNLOdiff, N3LOdiff =     0.013801    0.017514    0.010146    0.003834
#----------------------------------------------------------------------
# the lines that follow give the jet-veto efficiencies as a function of pt
#         pt            matched eff      resummed eff     fixed-order eff
   2.00000000E+001   3.64310220E-001   5.18898285E-001   3.54033455E-001
   2.50000000E+001   4.64245281E-001   5.34719159E-001   4.61286580E-001
   3.00000000E+001   5.44439006E-001   5.39865228E-001   5.43462220E-001
   3.50000000E+001   6.08870929E-001   5.41792368E-001   6.08508831E-001
   4.00000000E+001   6.61349732E-001   5.42612144E-001   6.61203589E-001
   4.50000000E+001   7.04467070E-001   5.42998736E-001   7.04404447E-001
   5.00000000E+001   7.40522652E-001   5.43196721E-001   7.40494892E-001
   5.50000000E+001   7.70902134E-001   5.43305113E-001   7.70889733E-001
   6.00000000E+001   7.96879874E-001   5.43367800E-001   7.96874542E-001
   6.50000000E+001   8.19208808E-001   5.43405753E-001   8.19206785E-001
   7.00000000E+001   8.38409691E-001   5.43429640E-001   8.38409214E-001
   7.50000000E+001   8.55230064E-001   5.43445181E-001   8.55230292E-001
   8.00000000E+001   8.69961898E-001   5.43455587E-001   8.69962422E-001
   8.50000000E+001   8.82823040E-001   5.43462733E-001   8.82823656E-001
   9.00000000E+001   8.94208604E-001   5.43467750E-001   8.94209219E-001
   9.50000000E+001   9.04229429E-001   5.43471343E-001   9.04230001E-001
   1.00000000E+002   9.13167408E-001   5.43473961E-001   9.13167919E-001
   1.05000000E+002   9.21134102E-001   5.43475900E-001   9.21134551E-001
   1.10000000E+002   9.28171067E-001   5.43477356E-001   9.28171457E-001
   1.15000000E+002   9.34553300E-001   5.43478464E-001   9.34553636E-001
   1.20000000E+002   9.40243927E-001   5.43479318E-001   9.40244216E-001
   1.25000000E+002   9.45389221E-001   5.43479982E-001   9.45389469E-001
   1.30000000E+002   9.50042333E-001   5.43480505E-001   9.50042546E-001
   1.35000000E+002   9.54228236E-001   5.43480920E-001   9.54228420E-001
   1.40000000E+002   9.58013008E-001   5.43481252E-001   9.58013167E-001
   1.45000000E+002   9.61492483E-001   5.43481520E-001   9.61492620E-001
   1.50000000E+002   9.64595459E-001   5.43481738E-001   9.64595577E-001
   1.55000000E+002   9.67464830E-001   5.43481916E-001   9.67464933E-001
   1.60000000E+002   9.70084826E-001   5.43482063E-001   9.70084916E-001
   1.65000000E+002   9.72455569E-001   5.43482185E-001   9.72455647E-001
   1.70000000E+002   9.74634292E-001   5.43482287E-001   9.74634361E-001
   1.75000000E+002   9.76592284E-001   5.43482372E-001   9.76592344E-001
   1.80000000E+002   9.78408527E-001   5.43482443E-001   9.78408580E-001
   1.85000000E+002   9.80055810E-001   5.43482504E-001   9.80055856E-001
   1.90000000E+002   9.81581782E-001   5.43482556E-001   9.81581823E-001
   1.95000000E+002   9.82992768E-001   5.43482600E-001   9.82992805E-001
   2.00000000E+002   9.84270953E-001   5.43482637E-001   9.84270986E-001
   2.05000000E+002   9.85464598E-001   5.43482670E-001   9.85464627E-001
   2.10000000E+002   9.86543308E-001   5.43482698E-001   9.86543334E-001
   2.15000000E+002   9.87527377E-001   5.43482722E-001   9.87527400E-001
   2.20000000E+002   9.88450882E-001   5.43482744E-001   9.88450903E-001
   2.25000000E+002   9.89295590E-001   5.43482762E-001   9.89295609E-001
   2.30000000E+002   9.90077808E-001   5.43482778E-001   9.90077825E-001
   2.35000000E+002   9.90811637E-001   5.43482792E-001   9.90811652E-001
   2.40000000E+002   9.91469878E-001   5.43482805E-001   9.91469891E-001
   2.45000000E+002   9.92089206E-001   5.43482816E-001   9.92089219E-001
