# ./jetvheto -in n3lo-fixed-order/H125-LHC13-R04-mb-0-mt-1725-xmur100-xmuf100-log.fxd -xQ 0.333 -out benchmarks-n3lo-smallR/H125-LHC13-R04-mb-0-mt-1725-xmur100-xmuf100-xQ033-NNLO+NNLLa.res -scheme a -order 2 -ptmax 500.01 -fixed_order 2 -loop-mass t
# process = H    
# collider = pp   
# rts =  13000.000
# M   =    125.000
# muR =    125.000
# muF =    125.000
# Q   =     41.625
# p   =      5.000
# include_c1_squared =   F
# loop_mass  = t   
# alphas(MZ) =    0.11800
# alphas(M) =    0.11264
# alphas(muR) =    0.11264
# Rjet =      0.400
# order = NNLL
# pdf name and set = PDF4LHC15_nnlo_mc.LHgrid,    0
# matching scheme = a
# total cross sections [nb] at LO, NLOdiff, NNLOdiff, N3LOdiff =     0.013801    0.017514    0.010146    0.003834
#----------------------------------------------------------------------
# the lines that follow give the jet-veto efficiencies as a function of pt
#         pt            matched eff      resummed eff     fixed-order eff
   2.00000000E+001   4.91405550E-001   5.25972703E-001   5.12111256E-001
   2.50000000E+001   5.78778199E-001   6.06659715E-001   5.93117916E-001
   3.00000000E+001   6.46180495E-001   6.61135482E-001   6.55183932E-001
   3.50000000E+001   6.98939925E-001   6.96370647E-001   7.04312652E-001
   4.00000000E+001   7.40932517E-001   7.18208424E-001   7.44112204E-001
   4.50000000E+001   7.74818011E-001   7.31346387E-001   7.76741158E-001
   5.00000000E+001   8.02791242E-001   7.39171675E-001   8.03999724E-001
   5.50000000E+001   8.26166236E-001   7.43868744E-001   8.26956486E-001
   6.00000000E+001   8.46045889E-001   7.46742326E-001   8.46582419E-001
   6.50000000E+001   8.63074142E-001   7.48543906E-001   8.63449624E-001
   7.00000000E+001   8.77683553E-001   7.49703181E-001   8.77952928E-001
   7.50000000E+001   8.90460281E-001   7.50468398E-001   8.90657633E-001
   8.00000000E+001   9.01637321E-001   7.50985757E-001   9.01784587E-001
   8.50000000E+001   9.11386918E-001   7.51343361E-001   9.11498483E-001
   9.00000000E+001   9.20012043E-001   7.51595585E-001   9.20097826E-001
   9.50000000E+001   9.27599608E-001   7.51776785E-001   9.27666371E-001
   1.00000000E+002   9.34364500E-001   7.51909157E-001   9.34417045E-001
   1.05000000E+002   9.40392333E-001   7.52007345E-001   9.40434122E-001
   1.10000000E+002   9.45715446E-001   7.52081195E-001   9.45748990E-001
   1.15000000E+002   9.50542187E-001   7.52137452E-001   9.50569353E-001
   1.20000000E+002   9.54845188E-001   7.52180810E-001   9.54867362E-001
   1.25000000E+002   9.58735254E-001   7.52214587E-001   9.58753493E-001
   1.30000000E+002   9.62252787E-001   7.52241163E-001   9.62267892E-001
   1.35000000E+002   9.65416824E-001   7.52262265E-001   9.65429419E-001
   1.40000000E+002   9.68277421E-001   7.52279163E-001   9.68287981E-001
   1.45000000E+002   9.70907049E-001   7.52292803E-001   9.70915959E-001
   1.50000000E+002   9.73252022E-001   7.52303894E-001   9.73259576E-001
   1.55000000E+002   9.75420319E-001   7.52312974E-001   9.75426757E-001
   1.60000000E+002   9.77400077E-001   7.52320457E-001   9.77405590E-001
   1.65000000E+002   9.79191426E-001   7.52326660E-001   9.79196168E-001
   1.70000000E+002   9.80837620E-001   7.52331832E-001   9.80841717E-001
   1.75000000E+002   9.82317000E-001   7.52336167E-001   9.82320552E-001
   1.80000000E+002   9.83689234E-001   7.52339819E-001   9.83692327E-001
   1.85000000E+002   9.84933788E-001   7.52342910E-001   9.84936490E-001
   1.90000000E+002   9.86086661E-001   7.52345538E-001   9.86089030E-001
   1.95000000E+002   9.87152638E-001   7.52347782E-001   9.87154723E-001
   2.00000000E+002   9.88118274E-001   7.52349707E-001   9.88120114E-001
   2.05000000E+002   9.89020025E-001   7.52351363E-001   9.89021653E-001
   2.10000000E+002   9.89834939E-001   7.52352793E-001   9.89836384E-001
   2.15000000E+002   9.90578348E-001   7.52354034E-001   9.90579634E-001
   2.20000000E+002   9.91275994E-001   7.52355112E-001   9.91277142E-001
   2.25000000E+002   9.91914109E-001   7.52356053E-001   9.91915136E-001
   2.30000000E+002   9.92505011E-001   7.52356877E-001   9.92505931E-001
   2.35000000E+002   9.93059352E-001   7.52357600E-001   9.93060180E-001
   2.40000000E+002   9.93556593E-001   7.52358236E-001   9.93557338E-001
   2.45000000E+002   9.94024434E-001   7.52358797E-001   9.94025107E-001
