# ./jetvheto -in n3lo-fixed-order/H125-LHC13-R04-mb-0-mt-1725-xmur100-xmuf050-log.fxd -xQ 0.25 -out benchmarks-n3lo-smallR/H125-LHC13-R04-mb-0-mt-1725-xmur100-xmuf050-xQ025-NNLO+NNLLa.R0-2.0.res -scheme a -order 2 -ptmax 500.01 -small-r -fixed_order 2 -loop-mass t -R0 2.0
# process = H    
# collider = pp   
# rts =  13000.000
# M   =    125.000
# muR =    125.000
# muF =     62.500
# Q   =     31.250
# p   =      5.000
# include_c1_squared =   F
# loop_mass  = t   
# alphas(MZ) =    0.11800
# alphas(M) =    0.11264
# alphas(muR) =    0.11264
# Rjet =      0.400
# order = NNLL
# pdf name and set = PDF4LHC15_nnlo_mc.LHgrid,    0
# matching scheme = a
# total cross sections [nb] at LO, NLOdiff, NNLOdiff, N3LOdiff =     0.012997    0.017347    0.010424    0.004163
#----------------------------------------------------------------------
# the lines that follow give the jet-veto efficiencies as a function of pt
#         pt            matched eff      resummed eff     fixed-order eff
   2.00000000E+001   4.88092603E-001   5.34609940E-001   5.05383673E-001
   2.50000000E+001   5.74917463E-001   6.08392895E-001   5.86599989E-001
   3.00000000E+001   6.41743160E-001   6.52101489E-001   6.49001744E-001
   3.50000000E+001   6.94126907E-001   6.76013846E-001   6.98540679E-001
   4.00000000E+001   7.35943802E-001   6.88616571E-001   7.38658449E-001
   4.50000000E+001   7.70008779E-001   6.95289559E-001   7.71720875E-001
   5.00000000E+001   7.98497857E-001   6.98928370E-001   7.99609682E-001
   5.50000000E+001   8.22120595E-001   7.00991395E-001   8.22862779E-001
   6.00000000E+001   8.42332209E-001   7.02208868E-001   8.42840818E-001
   6.50000000E+001   8.59725357E-001   7.02954959E-001   8.60082325E-001
   7.00000000E+001   8.74754334E-001   7.03428073E-001   8.75010333E-001
   7.50000000E+001   8.87760898E-001   7.03737384E-001   8.87947964E-001
   8.00000000E+001   8.99184182E-001   7.03945167E-001   8.99323286E-001
   8.50000000E+001   9.09259782E-001   7.04088158E-001   9.09364851E-001
   9.00000000E+001   9.18144258E-001   7.04188701E-001   9.18224745E-001
   9.50000000E+001   9.25954222E-001   7.04260775E-001   9.26016654E-001
   1.00000000E+002   9.32981517E-001   7.04313344E-001   9.33030521E-001
   1.05000000E+002   9.39147668E-001   7.04352291E-001   9.39186536E-001
   1.10000000E+002   9.44667911E-001   7.04381559E-001   9.44699045E-001
   1.15000000E+002   9.49637281E-001   7.04403840E-001   9.49662445E-001
   1.20000000E+002   9.54117991E-001   7.04421004E-001   9.54138501E-001
   1.25000000E+002   9.58195950E-001   7.04434369E-001   9.58212797E-001
   1.30000000E+002   9.61811124E-001   7.04444882E-001   9.61825060E-001
   1.35000000E+002   9.65075294E-001   7.04453228E-001   9.65086900E-001
   1.40000000E+002   9.68063153E-001   7.04459910E-001   9.68072879E-001
   1.45000000E+002   9.70791695E-001   7.04465302E-001   9.70799893E-001
   1.50000000E+002   9.73290043E-001   7.04469686E-001   9.73296991E-001
   1.55000000E+002   9.75541943E-001   7.04473275E-001   9.75547861E-001
   1.60000000E+002   9.77593950E-001   7.04476233E-001   9.77599016E-001
   1.65000000E+002   9.79455420E-001   7.04478684E-001   9.79459776E-001
   1.70000000E+002   9.81167924E-001   7.04480728E-001   9.81171685E-001
   1.75000000E+002   9.82721034E-001   7.04482441E-001   9.82724296E-001
   1.80000000E+002   9.84130651E-001   7.04483884E-001   9.84133490E-001
   1.85000000E+002   9.85437989E-001   7.04485105E-001   9.85440470E-001
   1.90000000E+002   9.86633604E-001   7.04486144E-001   9.86635778E-001
   1.95000000E+002   9.87730215E-001   7.04487030E-001   9.87732128E-001
   2.00000000E+002   9.88736508E-001   7.04487791E-001   9.88738196E-001
   2.05000000E+002   9.89658037E-001   7.04488445E-001   9.89659531E-001
   2.10000000E+002   9.90489975E-001   7.04489010E-001   9.90491300E-001
   2.15000000E+002   9.91275004E-001   7.04489500E-001   9.91276183E-001
   2.20000000E+002   9.91993780E-001   7.04489926E-001   9.91994832E-001
   2.25000000E+002   9.92640674E-001   7.04490298E-001   9.92641615E-001
   2.30000000E+002   9.93266234E-001   7.04490623E-001   9.93267078E-001
   2.35000000E+002   9.93812311E-001   7.04490909E-001   9.93813070E-001
   2.40000000E+002   9.94329126E-001   7.04491160E-001   9.94329809E-001
   2.45000000E+002   9.94802174E-001   7.04491382E-001   9.94802790E-001
