# ./jetvheto -in n3lo-fixed-order/H125-LHC13-R04-mb-475-mt-1725-xmur100-xmuf200-log.fxd -xQ 0.5 -out benchmarks-n3lo-smallR/H125-LHC13-R04-mb-475-mt-1725-xmur100-xmuf200-xQ050-N3LO+NNLLb.R0-0.5.res -scheme b -order 2 -ptmax 500.01 -fixed_order 3 -small-r -loop-mass t+b -R0 0.5
# process = H    
# collider = pp   
# rts =  13000.000
# M   =    125.000
# muR =    125.000
# muF =    250.000
# Q   =     62.500
# p   =      5.000
# include_c1_squared =   F
# loop_mass  = t+b 
# alphas(MZ) =    0.11800
# alphas(M) =    0.11264
# alphas(muR) =    0.11264
# Rjet =      0.400
# order = NNLL
# pdf name and set = PDF4LHC15_nnlo_mc.LHgrid,    0
# matching scheme = b
# total cross sections [nb] at LO, NLOdiff, NNLOdiff, N3LOdiff =     0.012791    0.017144    0.009991    0.003297
#----------------------------------------------------------------------
# the lines that follow give the jet-veto efficiencies as a function of pt
#         pt            matched eff      resummed eff     fixed-order eff
   2.00000000E+001   4.25306714E-001   5.13375758E-001   3.98403480E-001
   2.50000000E+001   5.14463937E-001   5.92347078E-001   4.96267892E-001
   3.00000000E+001   5.84483604E-001   6.47795217E-001   5.71031797E-001
   3.50000000E+001   6.42961217E-001   6.86224392E-001   6.32752564E-001
   4.00000000E+001   6.91091779E-001   7.12328740E-001   6.83141463E-001
   4.50000000E+001   7.29741508E-001   7.29568142E-001   7.23442380E-001
   5.00000000E+001   7.64554807E-001   7.40566112E-001   7.59617644E-001
   5.50000000E+001   7.92456828E-001   7.47327164E-001   7.88581283E-001
   6.00000000E+001   8.16394005E-001   7.51343169E-001   8.13375233E-001
   6.50000000E+001   8.36698158E-001   7.53665152E-001   8.34358241E-001
   7.00000000E+001   8.55543286E-001   7.54985806E-001   8.53732779E-001
   7.50000000E+001   8.70867492E-001   7.55733125E-001   8.69466670E-001
   8.00000000E+001   8.84210576E-001   7.56158214E-001   8.83123366E-001
   8.50000000E+001   8.96234694E-001   7.56403294E-001   8.95386863E-001
   9.00000000E+001   9.06385150E-001   7.56547377E-001   9.05719910E-001
   9.50000000E+001   9.16146790E-001   7.56634075E-001   9.15620884E-001
   1.00000000E+002   9.24244801E-001   7.56687600E-001   9.23826352E-001
   1.05000000E+002   9.31319463E-001   7.56721562E-001   9.30983974E-001
   1.10000000E+002   9.37384605E-001   7.56743702E-001   9.37113690E-001
   1.15000000E+002   9.43293845E-001   7.56758524E-001   9.43073389E-001
   1.20000000E+002   9.48680551E-001   7.56768703E-001   9.48499863E-001
   1.25000000E+002   9.53014568E-001   7.56775863E-001   9.52865589E-001
   1.30000000E+002   9.57249555E-001   7.56781013E-001   9.57125883E-001
   1.35000000E+002   9.60784232E-001   7.56784794E-001   9.60680960E-001
   1.40000000E+002   9.64493221E-001   7.56787623E-001   9.64406447E-001
   1.45000000E+002   9.67284301E-001   7.56789777E-001   9.67211040E-001
   1.50000000E+002   9.70123215E-001   7.56791442E-001   9.70061020E-001
   1.55000000E+002   9.72631500E-001   7.56792747E-001   9.72578448E-001
   1.60000000E+002   9.74779874E-001   7.56793782E-001   9.74734409E-001
   1.65000000E+002   9.76606783E-001   7.56794614E-001   9.76567658E-001
   1.70000000E+002   9.78682208E-001   7.56795288E-001   9.78648382E-001
   1.75000000E+002   9.80300945E-001   7.56795840E-001   9.80271594E-001
   1.80000000E+002   9.82170727E-001   7.56796296E-001   9.82145152E-001
   1.85000000E+002   9.83374701E-001   7.56796675E-001   9.83352349E-001
   1.90000000E+002   9.84670411E-001   7.56796992E-001   9.84650805E-001
   1.95000000E+002   9.85804783E-001   7.56797259E-001   9.85787530E-001
   2.00000000E+002   9.87143538E-001   7.56797486E-001   9.87128304E-001
   2.05000000E+002   9.87957917E-001   7.56797679E-001   9.87944432E-001
   2.10000000E+002   9.88747742E-001   7.56797844E-001   9.88735771E-001
   2.15000000E+002   9.89661559E-001   7.56797987E-001   9.89650901E-001
   2.20000000E+002   9.90510437E-001   7.56798110E-001   9.90500922E-001
   2.25000000E+002   9.91123677E-001   7.56798216E-001   9.91115165E-001
   2.30000000E+002   9.91720383E-001   7.56798309E-001   9.91712748E-001
   2.35000000E+002   9.92370744E-001   7.56798390E-001   9.92363881E-001
   2.40000000E+002   9.92932034E-001   7.56798461E-001   9.92925851E-001
   2.45000000E+002   9.93477121E-001   7.56798524E-001   9.93471538E-001
