# ./jetvheto -in n3lo-fixed-order/H125-LHC13-R04-mb-0-mt-1725-xmur050-xmuf100-log.fxd -xQ 0.5 -out benchmarks-n3lo-smallR/H125-LHC13-R04-mb-0-mt-1725-xmur050-xmuf100-xQ050-N3LO+NNLLb.R0-1.0.res -scheme b -order 2 -ptmax 500.01 -small-r -fixed_order 3 -loop-mass t -R0 1.0
# process = H    
# collider = pp   
# rts =  13000.000
# M   =    125.000
# muR =     62.500
# muF =    125.000
# Q   =     62.500
# p   =      5.000
# include_c1_squared =   F
# loop_mass  = t   
# alphas(MZ) =    0.11800
# alphas(M) =    0.11264
# alphas(muR) =    0.12516
# Rjet =      0.400
# order = NNLL
# pdf name and set = PDF4LHC15_nnlo_mc.LHgrid,    0
# matching scheme = b
# total cross sections [nb] at LO, NLOdiff, NNLOdiff, N3LOdiff =     0.016868    0.020591    0.008553    0.000949
#----------------------------------------------------------------------
# the lines that follow give the jet-veto efficiencies as a function of pt
#         pt            matched eff      resummed eff     fixed-order eff
   2.00000000E+001   4.65434624E-001   5.14145837E-001   4.44147613E-001
   2.50000000E+001   5.48609175E-001   5.90464229E-001   5.31088854E-001
   3.00000000E+001   6.20596084E-001   6.43775491E-001   6.07119654E-001
   3.50000000E+001   6.76011882E-001   6.80542929E-001   6.65155664E-001
   4.00000000E+001   7.20694199E-001   7.05379715E-001   7.11953965E-001
   4.50000000E+001   7.56640140E-001   7.21674035E-001   7.49666337E-001
   5.00000000E+001   7.87327080E-001   7.31983247E-001   7.81846163E-001
   5.50000000E+001   8.13766948E-001   7.38250310E-001   8.09509340E-001
   6.00000000E+001   8.35886430E-001   7.41916516E-001   8.32598772E-001
   6.50000000E+001   8.56105910E-001   7.43993326E-001   8.53579085E-001
   7.00000000E+001   8.72969691E-001   7.45142679E-001   8.71029528E-001
   7.50000000E+001   8.86651682E-001   7.45770022E-001   8.85160222E-001
   8.00000000E+001   8.98737947E-001   7.46110544E-001   8.97586419E-001
   8.50000000E+001   9.09909869E-001   7.46295371E-001   9.09015500E-001
   9.00000000E+001   9.19230766E-001   7.46396020E-001   9.18531151E-001
   9.50000000E+001   9.27987327E-001   7.46451042E-001   9.27435725E-001
   1.00000000E+002   9.35054568E-001   7.46481182E-001   9.34616627E-001
   1.05000000E+002   9.41428645E-001   7.46497647E-001   9.41078136E-001
   1.10000000E+002   9.47225665E-001   7.46506543E-001   9.46942949E-001
   1.15000000E+002   9.52415470E-001   7.46511226E-001   9.52185702E-001
   1.20000000E+002   9.56857562E-001   7.46513560E-001   9.56669565E-001
   1.25000000E+002   9.60602727E-001   7.46514591E-001   9.60447873E-001
   1.30000000E+002   9.64614255E-001   7.46514908E-001   9.64485783E-001
   1.35000000E+002   9.68055781E-001   7.46514845E-001   9.67948544E-001
   1.40000000E+002   9.70841931E-001   7.46514591E-001   9.70751967E-001
   1.45000000E+002   9.73566404E-001   7.46514253E-001   9.73490463E-001
   1.50000000E+002   9.75800805E-001   7.46513890E-001   9.75736407E-001
   1.55000000E+002   9.78448794E-001   7.46513534E-001   9.78393871E-001
   1.60000000E+002   9.79915830E-001   7.46513199E-001   9.79868816E-001
   1.65000000E+002   9.81707175E-001   7.46512894E-001   9.81666733E-001
   1.70000000E+002   9.83220598E-001   7.46512621E-001   9.83185663E-001
   1.75000000E+002   9.84770384E-001   7.46512378E-001   9.84740083E-001
   1.80000000E+002   9.86183330E-001   7.46512164E-001   9.86156947E-001
   1.85000000E+002   9.87445906E-001   7.46511976E-001   9.87422854E-001
   1.90000000E+002   9.88146232E-001   7.46511811E-001   9.88126031E-001
   1.95000000E+002   9.89315905E-001   7.46511666E-001   9.89298131E-001
   2.00000000E+002   9.90269208E-001   7.46511540E-001   9.90253524E-001
   2.05000000E+002   9.91042343E-001   7.46511429E-001   9.91028463E-001
   2.10000000E+002   9.91729244E-001   7.46511331E-001   9.91716927E-001
   2.15000000E+002   9.92598330E-001   7.46511246E-001   9.92587368E-001
   2.20000000E+002   9.93122033E-001   7.46511171E-001   9.93112253E-001
   2.25000000E+002   9.93738312E-001   7.46511105E-001   9.93729564E-001
   2.30000000E+002   9.94315536E-001   7.46511046E-001   9.94307692E-001
   2.35000000E+002   9.94844000E-001   7.46510995E-001   9.94836951E-001
   2.40000000E+002   9.95123547E-001   7.46510949E-001   9.95117200E-001
   2.45000000E+002   9.95628634E-001   7.46510908E-001   9.95622905E-001
