# ./jetvheto -in n3lo-fixed-order/H125-LHC13-R04-mb-0-mt-1725-xmur050-xmuf050-log.fxd -xQ 0.5 -out benchmarks-n3lo-smallR/H125-LHC13-R04-mb-0-mt-1725-xmur050-xmuf050-xQ050-NNLO+NNLLb.R0-0.5.res -scheme b -order 2 -ptmax 500.01 -small-r -fixed_order 2 -loop-mass t -R0 0.5
# process = H    
# collider = pp   
# rts =  13000.000
# M   =    125.000
# muR =     62.500
# muF =     62.500
# Q   =     62.500
# p   =      5.000
# include_c1_squared =   F
# loop_mass  = t   
# alphas(MZ) =    0.11800
# alphas(M) =    0.11264
# alphas(muR) =    0.12516
# Rjet =      0.400
# order = NNLL
# pdf name and set = PDF4LHC15_nnlo_mc.LHgrid,    0
# matching scheme = b
# total cross sections [nb] at LO, NLOdiff, NNLOdiff, N3LOdiff =     0.015885    0.020561    0.008998    0.001413
#----------------------------------------------------------------------
# the lines that follow give the jet-veto efficiencies as a function of pt
#         pt            matched eff      resummed eff     fixed-order eff
   2.00000000E+001   4.26087012E-001   4.97640390E-001   3.37968833E-001
   2.50000000E+001   5.10066045E-001   5.77046966E-001   4.45490403E-001
   3.00000000E+001   5.77635414E-001   6.33203575E-001   5.29094091E-001
   3.50000000E+001   6.32863696E-001   6.72429760E-001   5.95850260E-001
   4.00000000E+001   6.78484216E-001   6.99330773E-001   6.50115846E-001
   4.50000000E+001   7.16663496E-001   7.17302389E-001   6.94939270E-001
   5.00000000E+001   7.49347667E-001   7.28935711E-001   7.32769177E-001
   5.50000000E+001   7.76948647E-001   7.36225136E-001   7.64361916E-001
   6.00000000E+001   8.00997128E-001   7.40666059E-001   7.91465371E-001
   6.50000000E+001   8.22051545E-001   7.43318708E-001   8.14838120E-001
   7.00000000E+001   8.40546786E-001   7.44890417E-001   8.35078651E-001
   7.50000000E+001   8.56733889E-001   7.45825376E-001   8.52570605E-001
   8.00000000E+001   8.71126869E-001   7.46389583E-001   8.67937405E-001
   8.50000000E+001   8.83939966E-001   7.46737484E-001   8.81478135E-001
   9.00000000E+001   8.95327618E-001   7.46957800E-001   8.93411828E-001
   9.50000000E+001   9.05371771E-001   7.47101374E-001   9.03868009E-001
   1.00000000E+002   9.14456737E-001   7.47197650E-001   9.13265993E-001
   1.05000000E+002   9.22440207E-001   7.47263996E-001   9.21489390E-001
   1.10000000E+002   9.29613324E-001   7.47310886E-001   9.28847842E-001
   1.15000000E+002   9.36072494E-001   7.47344795E-001   9.35451292E-001
   1.20000000E+002   9.41901411E-001   7.47369825E-001   9.41393487E-001
   1.25000000E+002   9.47208748E-001   7.47388640E-001   9.46790455E-001
   1.30000000E+002   9.51903106E-001   7.47403014E-001   9.51556334E-001
   1.35000000E+002   9.56151323E-001   7.47414153E-001   9.55862035E-001
   1.40000000E+002   9.60031505E-001   7.47422897E-001   9.59788706E-001
   1.45000000E+002   9.63561906E-001   7.47429839E-001   9.63356960E-001
   1.50000000E+002   9.66797653E-001   7.47435407E-001   9.66623739E-001
   1.55000000E+002   9.69707794E-001   7.47439913E-001   9.69559478E-001
   1.60000000E+002   9.72355238E-001   7.47443592E-001   9.72228153E-001
   1.65000000E+002   9.74748590E-001   7.47446617E-001   9.74639208E-001
   1.70000000E+002   9.76951624E-001   7.47449122E-001   9.76857081E-001
   1.75000000E+002   9.78951700E-001   7.47451210E-001   9.78869658E-001
   1.80000000E+002   9.80753929E-001   7.47452961E-001   9.80682463E-001
   1.85000000E+002   9.82424208E-001   7.47454437E-001   9.82361728E-001
   1.90000000E+002   9.83951640E-001   7.47455688E-001   9.83896830E-001
   1.95000000E+002   9.85345213E-001   7.47456752E-001   9.85296972E-001
   2.00000000E+002   9.86620948E-001   7.47457663E-001   9.86578358E-001
   2.05000000E+002   9.87790381E-001   7.47458445E-001   9.87752669E-001
   2.10000000E+002   9.88837936E-001   7.47459119E-001   9.88804449E-001
   2.15000000E+002   9.89829744E-001   7.47459703E-001   9.89799927E-001
   2.20000000E+002   9.90736058E-001   7.47460209E-001   9.90709441E-001
   2.25000000E+002   9.91540866E-001   7.47460651E-001   9.91517046E-001
   2.30000000E+002   9.92331868E-001   7.47461037E-001   9.92310501E-001
   2.35000000E+002   9.93012095E-001   7.47461375E-001   9.92992886E-001
   2.40000000E+002   9.93655511E-001   7.47461673E-001   9.93638203E-001
   2.45000000E+002   9.94243994E-001   7.47461936E-001   9.94228366E-001
