# ./jetvheto -in n3lo-fixed-order/H125-LHC13-R04-mb-0-mt-1725-xmur025-xmuf025-log.fxd -xQ 0.0625 -out benchmarks-n3lo-smallR/H125-LHC13-R04-mb-0-mt-1725-xmur025-xmuf025-xQ0625-N3LO+NNLLa.R0-1.5.res -scheme a -order 2 -ptmax 500.01 -small-r -fixed_order 3 -loop-mass t -R0 1.5
# process = H    
# collider = pp   
# rts =  13000.000
# M   =    125.000
# muR =     31.250
# muF =     31.250
# Q   =      7.812
# p   =      5.000
# include_c1_squared =   F
# loop_mass  = t   
# alphas(MZ) =    0.11800
# alphas(M) =    0.11264
# alphas(muR) =    0.14091
# Rjet =      0.400
# order = NNLL
# pdf name and set = PDF4LHC15_nnlo_mc.LHgrid,    0
# matching scheme = a
# total cross sections [nb] at LO, NLOdiff, NNLOdiff, N3LOdiff =     0.018140    0.025356    0.006043   -0.002471
#----------------------------------------------------------------------
# the lines that follow give the jet-veto efficiencies as a function of pt
#         pt            matched eff      resummed eff     fixed-order eff
   2.00000000E+001   4.60256758E-001   4.50946607E-002   4.60281449E-001
   2.50000000E+001   5.50379876E-001   4.52558151E-002   5.50385931E-001
   3.00000000E+001   6.21138083E-001   4.53030369E-002   6.21139730E-001
   3.50000000E+001   6.77588635E-001   4.53201127E-002   6.77588964E-001
   4.00000000E+001   7.24527029E-001   4.53272786E-002   7.24527077E-001
   4.50000000E+001   7.64122222E-001   4.53306378E-002   7.64122223E-001
   5.00000000E+001   7.96835673E-001   4.53323532E-002   7.96835644E-001
   5.50000000E+001   8.25828659E-001   4.53332910E-002   8.25828649E-001
   6.00000000E+001   8.49135008E-001   4.53338328E-002   8.49134989E-001
   6.50000000E+001   8.66851528E-001   4.53341607E-002   8.66851489E-001
   7.00000000E+001   8.84316408E-001   4.53343670E-002   8.84316376E-001
   7.50000000E+001   8.99072209E-001   4.53345012E-002   8.99072184E-001
   8.00000000E+001   9.10775842E-001   4.53345911E-002   9.10775817E-001
   8.50000000E+001   9.21861240E-001   4.53346528E-002   9.21861220E-001
   9.00000000E+001   9.31529095E-001   4.53346961E-002   9.31529078E-001
   9.50000000E+001   9.37748116E-001   4.53347271E-002   9.37748099E-001
   1.00000000E+002   9.45876528E-001   4.53347497E-002   9.45876515E-001
   1.05000000E+002   9.51390052E-001   4.53347664E-002   9.51390040E-001
   1.10000000E+002   9.57661219E-001   4.53347790E-002   9.57661210E-001
   1.15000000E+002   9.62866757E-001   4.53347886E-002   9.62866750E-001
   1.20000000E+002   9.66546056E-001   4.53347960E-002   9.66546049E-001
   1.25000000E+002   9.69617587E-001   4.53348017E-002   9.69617581E-001
   1.30000000E+002   9.73182183E-001   4.53348062E-002   9.73182178E-001
   1.35000000E+002   9.75896473E-001   4.53348098E-002   9.75896468E-001
   1.40000000E+002   9.78571155E-001   4.53348126E-002   9.78571151E-001
   1.45000000E+002   9.81025790E-001   4.53348150E-002   9.81025787E-001
   1.50000000E+002   9.83017078E-001   4.53348168E-002   9.83017075E-001
   1.55000000E+002   9.84864103E-001   4.53348184E-002   9.84864101E-001
   1.60000000E+002   9.87055317E-001   4.53348197E-002   9.87055315E-001
   1.65000000E+002   9.88374804E-001   4.53348207E-002   9.88374802E-001
   1.70000000E+002   9.89352072E-001   4.53348216E-002   9.89352070E-001
   1.75000000E+002   9.90940609E-001   4.53348223E-002   9.90940607E-001
   1.80000000E+002   9.91717936E-001   4.53348229E-002   9.91717934E-001
   1.85000000E+002   9.92898240E-001   4.53348235E-002   9.92898239E-001
   1.90000000E+002   9.93679754E-001   4.53348239E-002   9.93679753E-001
   1.95000000E+002   9.94671668E-001   4.53348243E-002   9.94671667E-001
   2.00000000E+002   9.95193431E-001   4.53348246E-002   9.95193430E-001
   2.05000000E+002   9.95757416E-001   4.53348249E-002   9.95757415E-001
   2.10000000E+002   9.96264191E-001   4.53348251E-002   9.96264190E-001
   2.15000000E+002   9.96992409E-001   4.53348253E-002   9.96992409E-001
   2.20000000E+002   9.97343678E-001   4.53348255E-002   9.97343677E-001
   2.25000000E+002   9.97916811E-001   4.53348257E-002   9.97916811E-001
   2.30000000E+002   9.98225783E-001   4.53348258E-002   9.98225783E-001
   2.35000000E+002   9.98345704E-001   4.53348259E-002   9.98345703E-001
   2.40000000E+002   9.98774579E-001   4.53348261E-002   9.98774579E-001
   2.45000000E+002   9.99097119E-001   4.53348261E-002   9.99097118E-001
