# ./jetvheto -in n3lo-fixed-order/H125-LHC13-R04-mb-475-mt-1725-xmur200-xmuf100-log.fxd -xQ 0.25 -out benchmarks-n3lo-smallR/H125-LHC13-R04-mb-475-mt-1725-xmur200-xmuf100-xQ025-N3LO+NNLLa.R0-1.5.res -scheme a -order 2 -ptmax 500.01 -fixed_order 3 -small-r -loop-mass t+b -R0 1.5
# process = H    
# collider = pp   
# rts =  13000.000
# M   =    125.000
# muR =    250.000
# muF =    125.000
# Q   =     31.250
# p   =      5.000
# include_c1_squared =   F
# loop_mass  = t+b 
# alphas(MZ) =    0.11800
# alphas(M) =    0.11264
# alphas(muR) =    0.10244
# Rjet =      0.400
# order = NNLL
# pdf name and set = PDF4LHC15_nnlo_mc.LHgrid,    0
# matching scheme = a
# total cross sections [nb] at LO, NLOdiff, NNLOdiff, N3LOdiff =     0.010243    0.014468    0.010526    0.005600
#----------------------------------------------------------------------
# the lines that follow give the jet-veto efficiencies as a function of pt
#         pt            matched eff      resummed eff     fixed-order eff
   2.00000000E+001   4.64105801E-001   5.55229486E-001   4.73494745E-001
   2.50000000E+001   5.49991963E-001   6.27885664E-001   5.56567496E-001
   3.00000000E+001   6.20274686E-001   6.70550970E-001   6.24602117E-001
   3.50000000E+001   6.75286965E-001   6.93746712E-001   6.77949159E-001
   4.00000000E+001   7.19514340E-001   7.05924112E-001   7.21153727E-001
   4.50000000E+001   7.55558574E-001   7.12357512E-001   7.56587199E-001
   5.00000000E+001   7.85905781E-001   7.15861187E-001   7.86572074E-001
   5.50000000E+001   8.11669819E-001   7.17846135E-001   8.12114650E-001
   6.00000000E+001   8.33510496E-001   7.19017026E-001   8.33814754E-001
   6.50000000E+001   8.52775403E-001   7.19734382E-001   8.52989485E-001
   7.00000000E+001   8.69163915E-001   7.20189201E-001   8.69317384E-001
   7.50000000E+001   8.82950454E-001   7.20486519E-001   8.83062188E-001
   8.00000000E+001   8.95104922E-001   7.20686232E-001   8.95187770E-001
   8.50000000E+001   9.05951068E-001   7.20823663E-001   9.06013600E-001
   9.00000000E+001   9.15366349E-001   7.20920293E-001   9.15414143E-001
   9.50000000E+001   9.23865593E-001   7.20989561E-001   9.23902665E-001
   1.00000000E+002   9.31111008E-001   7.21040081E-001   9.31140034E-001
   1.05000000E+002   9.37626140E-001   7.21077511E-001   9.37649125E-001
   1.10000000E+002   9.43437090E-001   7.21105638E-001   9.43455481E-001
   1.15000000E+002   9.48673953E-001   7.21127051E-001   9.48688803E-001
   1.20000000E+002   9.53230347E-001   7.21143545E-001   9.53242433E-001
   1.25000000E+002   9.57283922E-001   7.21156390E-001   9.57293828E-001
   1.30000000E+002   9.61182111E-001   7.21166492E-001   9.61190307E-001
   1.35000000E+002   9.64650485E-001   7.21174512E-001   9.64657308E-001
   1.40000000E+002   9.67625078E-001   7.21180934E-001   9.67630788E-001
   1.45000000E+002   9.70441859E-001   7.21186116E-001   9.70446670E-001
   1.50000000E+002   9.72872675E-001   7.21190329E-001   9.72876747E-001
   1.55000000E+002   9.75360381E-001   7.21193778E-001   9.75363852E-001
   1.60000000E+002   9.77218574E-001   7.21196620E-001   9.77221540E-001
   1.65000000E+002   9.79109069E-001   7.21198976E-001   9.79111617E-001
   1.70000000E+002   9.80787800E-001   7.21200940E-001   9.80789999E-001
   1.75000000E+002   9.82382183E-001   7.21202586E-001   9.82384090E-001
   1.80000000E+002   9.83839779E-001   7.21203973E-001   9.83841438E-001
   1.85000000E+002   9.85162590E-001   7.21205147E-001   9.85164039E-001
   1.90000000E+002   9.86186029E-001   7.21206144E-001   9.86187297E-001
   1.95000000E+002   9.87358106E-001   7.21206997E-001   9.87359222E-001
   2.00000000E+002   9.88375015E-001   7.21207727E-001   9.88375999E-001
   2.05000000E+002   9.89271356E-001   7.21208356E-001   9.89272227E-001
   2.10000000E+002   9.90084467E-001   7.21208899E-001   9.90085240E-001
   2.15000000E+002   9.90917343E-001   7.21209370E-001   9.90918031E-001
   2.20000000E+002   9.91581850E-001   7.21209780E-001   9.91582463E-001
   2.25000000E+002   9.92246377E-001   7.21210137E-001   9.92246925E-001
   2.30000000E+002   9.92861858E-001   7.21210450E-001   9.92862349E-001
   2.35000000E+002   9.93432100E-001   7.21210724E-001   9.93432542E-001
   2.40000000E+002   9.93863860E-001   7.21210966E-001   9.93864257E-001
   2.45000000E+002   9.94373913E-001   7.21211179E-001   9.94374272E-001
