# python build-Q2-histos.py --mtQ1file ../../JetVHeto/benchmarks-n3lo-smallR/H125-LHC13-R04-mb-0-mt-1725-xmur025-xmuf050-xQ050-N3LO+NNLLa.R0-1.0.res --mtQ2file ../../JetVHeto/benchmarks-n3lo-smallR/H125-LHC13-R04-mb-0-mt-1725-xmur025-xmuf050-xQ0625-N3LO+NNLLa.R0-1.0.res --mtmbQ2file ../../JetVHeto/benchmarks-n3lo-smallR/H125-LHC13-R04-mb-475-mt-1725-xmur025-xmuf050-xQ0625-N3LO+NNLLa.R0-1.0.res
# process = H    
# collider = pp   
# rts =  13000.000
# M   =    125.000
# muR =     31.250
# muF =     62.500
# Q1  =  62.500; Q2  =  7.812
# p   =      5.000
# include_c1_squared =   F
# loop_mass  = t+b 
# alphas(MZ) =    0.11800
# alphas(M) =    0.11264
# alphas(muR) =    0.14091
# Rjet =      0.400
# order = NNLL
# pdf name and set = PDF4LHC15_nnlo_mc.LHgrid,    0
# matching scheme = a
# total cross sections [nb] at LO, NLOdiff, NNLOdiff, N3LOdiff =     0.017683    0.024805    0.005009   -0.002663
#----------------------------------------------------------------------
# the lines that follow give the jet-veto efficiencies as a function of pt
#         pt            matched eff      resummed eff     fixed-order eff
20.0 0.46878693667 0.525550349559 0.446607809
25.0 0.549438877769 0.596110973296 0.529091423
30.0 0.621095417766 0.64468973393 0.604995778
35.0 0.677800584689 0.677695997647 0.665141973
40.0 0.720163696107 0.699618270364 0.710209715
45.0 0.759213900202 0.713687233238 0.751667982
50.0 0.789552128332 0.722324196905 0.783854807
55.0 0.816742440404 0.727359629167 0.812489362
60.0 0.838560583002 0.730135744895 0.835391522
65.0 0.860004788489 0.731576057326 0.85764071
70.0 0.875246079593 0.732272609522 0.873471931
75.0 0.889365592368 0.732577822943 0.888027309
80.0 0.902476537619 0.732688132772 0.901457188
85.0 0.914246783008 0.732707137991 0.913463104
90.0 0.924614887824 0.732687255215 0.924006495
95.0 0.932367292289 0.732653754518 0.931891873
100.0 0.94013484961 0.732618152704 0.939759362
105.0 0.945899957772 0.732585249495 0.94560141
110.0 0.951296398133 0.732556662563 0.951056796
115.0 0.956673707634 0.732532588599 0.956479795
120.0 0.961501660653 0.732512636163 0.961343529
125.0 0.965234321078 0.732496229128 0.965104556
130.0 0.96841671567 0.732482780268 0.968309576
135.0 0.971864380518 0.732471756295 0.971775236
140.0 0.97500686751 0.732462706209 0.974932267
145.0 0.977622381039 0.732455256197 0.977559644
150.0 0.979345501668 0.732449101348 0.979292492
155.0 0.981835467907 0.732443997786 0.981790391
160.0 0.984038050591 0.732439748555 0.983999542
165.0 0.98488845236 0.732436194802 0.984855464
170.0 0.986556914211 0.732433211619 0.986528488
175.0 0.988150453305 0.732430695442 0.98812585
180.0 0.989188659247 0.732428565643 0.989167305
185.0 0.99013951865 0.73242675521 0.990120912
190.0 0.991229800839 0.732425210736 0.991213525
195.0 0.992248943284 0.732423888254 0.99223466
200.0 0.993118718394 0.732422751101 0.993106144
205.0 0.993703296193 0.732421769973 0.993692194
210.0 0.994373638032 0.732420920773 0.994363808
215.0 0.994780024452 0.732420183616 0.994771297
220.0 0.995694354652 0.732419541848 0.995686578
225.0 0.995949739984 0.732418981549 0.995942802
230.0 0.99638562426 0.732418489414 0.996379414
235.0 0.996646010491 0.732418058006 0.99664044
240.0 0.99698902816 0.732417677909 0.996984021
245.0 0.997490702935 0.73241734179 0.99748619
