# ./jetvheto -in n3lo-fixed-order/H125-LHC13-R04-heft-xmur050-xmuf100-log.fxd -xQ 0.50 -out benchmarks-n3lo-smallR/H125-LHC13-R04-heft-xmur050-xmuf100-xQ050-N3LO+NNLLb.R0-1.5.res -scheme b -order 2 -ptmax 500.01 -fixed_order 3 -small-r -R0 1.5
# process = H    
# collider = pp   
# rts =  13000.000
# M   =    125.000
# muR =     62.500
# muF =    125.000
# Q   =     62.500
# p   =      5.000
# include_c1_squared =   F
# loop_mass  = none
# alphas(MZ) =    0.11800
# alphas(M) =    0.11264
# alphas(muR) =    0.12516
# Rjet =      0.400
# order = NNLL
# pdf name and set = PDF4LHC15_nnlo_mc.LHgrid,    0
# matching scheme = b
# total cross sections [nb] at LO, NLOdiff, NNLOdiff, N3LOdiff =     0.015984    0.019551    0.008553    0.000949
#----------------------------------------------------------------------
# the lines that follow give the jet-veto efficiencies as a function of pt
#         pt            matched eff      resummed eff     fixed-order eff
   2.00000000E+001   4.57118930E-001   5.18708428E-001   4.30143720E-001
   2.50000000E+001   5.39760591E-001   5.92846049E-001   5.18147973E-001
   3.00000000E+001   6.12074738E-001   6.44529505E-001   5.95579410E-001
   3.50000000E+001   6.67658741E-001   6.80103754E-001   6.54547090E-001
   4.00000000E+001   7.12593583E-001   7.04075734E-001   7.02161820E-001
   4.50000000E+001   7.48829030E-001   7.19750351E-001   7.40590338E-001
   5.00000000E+001   7.79842145E-001   7.29621008E-001   7.73417912E-001
   5.50000000E+001   8.06637251E-001   7.35581433E-001   8.01677467E-001
   6.00000000E+001   8.29077834E-001   7.39035204E-001   8.25267498E-001
   6.50000000E+001   8.49684658E-001   7.40965494E-001   8.46767154E-001
   7.00000000E+001   8.66896596E-001   7.42013692E-001   8.64663190E-001
   7.50000000E+001   8.80808834E-001   7.42570793E-001   8.79095795E-001
   8.00000000E+001   8.93104597E-001   7.42862074E-001   8.91784120E-001
   8.50000000E+001   9.04507440E-001   7.43011975E-001   9.03482987E-001
   9.00000000E+001   9.14051655E-001   7.43087529E-001   9.13251039E-001
   9.50000000E+001   9.23030517E-001   7.43124280E-001   9.22399687E-001
   1.00000000E+002   9.30247119E-001   7.43140940E-001   9.29746499E-001
   1.05000000E+002   9.36766073E-001   7.43147333E-001   9.36365528E-001
   1.10000000E+002   9.42731588E-001   7.43148611E-001   9.42408604E-001
   1.15000000E+002   9.48053465E-001   7.43147468E-001   9.47791016E-001
   1.20000000E+002   9.52620163E-001   7.43145297E-001   9.52405455E-001
   1.25000000E+002   9.56457832E-001   7.43142810E-001   9.56280992E-001
   1.30000000E+002   9.60568627E-001   7.43140353E-001   9.60421917E-001
   1.35000000E+002   9.64130101E-001   7.43138084E-001   9.64007650E-001
   1.40000000E+002   9.66978907E-001   7.43136062E-001   9.66876177E-001
   1.45000000E+002   9.69787811E-001   7.43134295E-001   9.69701096E-001
   1.50000000E+002   9.72086466E-001   7.43132769E-001   9.72012931E-001
   1.55000000E+002   9.74804845E-001   7.43131460E-001   9.74742124E-001
   1.60000000E+002   9.76310439E-001   7.43130340E-001   9.76256750E-001
   1.65000000E+002   9.78159124E-001   7.43129384E-001   9.78112939E-001
   1.70000000E+002   9.79733341E-001   7.43128567E-001   9.79693446E-001
   1.75000000E+002   9.81353455E-001   7.43127869E-001   9.81318852E-001
   1.80000000E+002   9.82834567E-001   7.43127271E-001   9.82804438E-001
   1.85000000E+002   9.84160887E-001   7.43126758E-001   9.84134562E-001
   1.90000000E+002   9.84897920E-001   7.43126316E-001   9.84874852E-001
   1.95000000E+002   9.86140564E-001   7.43125936E-001   9.86120267E-001
   2.00000000E+002   9.87163817E-001   7.43125607E-001   9.87145908E-001
   2.05000000E+002   9.87993125E-001   7.43125322E-001   9.87977278E-001
   2.10000000E+002   9.88741977E-001   7.43125074E-001   9.88727914E-001
   2.15000000E+002   9.89679604E-001   7.43124858E-001   9.89667088E-001
   2.20000000E+002   9.90257625E-001   7.43124669E-001   9.90246459E-001
   2.25000000E+002   9.90935470E-001   7.43124504E-001   9.90925484E-001
   2.30000000E+002   9.91574818E-001   7.43124359E-001   9.91565864E-001
   2.35000000E+002   9.92169407E-001   7.43124231E-001   9.92161361E-001
   2.40000000E+002   9.92504011E-001   7.43124119E-001   9.92496766E-001
   2.45000000E+002   9.93073701E-001   7.43124019E-001   9.93067162E-001
