# ./jetvheto -in n3lo-fixed-order/H125-LHC13-R04-mb-0-mt-1725-xmur050-xmuf100-log.fxd -xQ 0.0625 -out benchmarks-n3lo-smallR/H125-LHC13-R04-mb-0-mt-1725-xmur050-xmuf100-xQ0625-NNLO+NNLLa.res -scheme a -order 2 -ptmax 500.01 -fixed_order 2 -loop-mass t
# process = H    
# collider = pp   
# rts =  13000.000
# M   =    125.000
# muR =     62.500
# muF =    125.000
# Q   =      7.812
# p   =      5.000
# include_c1_squared =   F
# loop_mass  = t   
# alphas(MZ) =    0.11800
# alphas(M) =    0.11264
# alphas(muR) =    0.12516
# Rjet =      0.400
# order = NNLL
# pdf name and set = PDF4LHC15_nnlo_mc.LHgrid,    0
# matching scheme = a
# total cross sections [nb] at LO, NLOdiff, NNLOdiff, N3LOdiff =     0.016868    0.020591    0.008553    0.000949
#----------------------------------------------------------------------
# the lines that follow give the jet-veto efficiencies as a function of pt
#         pt            matched eff      resummed eff     fixed-order eff
   2.00000000E+001   4.73939389E-001   1.78503449E-001   4.73976153E-001
   2.50000000E+001   5.60121681E-001   1.78880502E-001   5.60164869E-001
   3.00000000E+001   6.26975352E-001   1.78990936E-001   6.27003093E-001
   3.50000000E+001   6.80199680E-001   1.79030864E-001   6.80216456E-001
   4.00000000E+001   7.23499993E-001   1.79047619E-001   7.23510277E-001
   4.50000000E+001   7.59076381E-001   1.79055473E-001   7.59082862E-001
   5.00000000E+001   7.88820252E-001   1.79059484E-001   7.88824462E-001
   5.50000000E+001   8.13860595E-001   1.79061676E-001   8.13863409E-001
   6.00000000E+001   8.35295206E-001   1.79062943E-001   8.35297139E-001
   6.50000000E+001   8.53707315E-001   1.79063710E-001   8.53708674E-001
   7.00000000E+001   8.69525739E-001   1.79064192E-001   8.69526715E-001
   7.50000000E+001   8.83351001E-001   1.79064506E-001   8.83351716E-001
   8.00000000E+001   8.95450875E-001   1.79064716E-001   8.95451407E-001
   8.50000000E+001   9.05980751E-001   1.79064860E-001   9.05981154E-001
   9.00000000E+001   9.15315598E-001   1.79064961E-001   9.15315906E-001
   9.50000000E+001   9.23507789E-001   1.79065034E-001   9.23508029E-001
   1.00000000E+002   9.30793512E-001   1.79065087E-001   9.30793701E-001
   1.05000000E+002   9.37278476E-001   1.79065126E-001   9.37278625E-001
   1.10000000E+002   9.42993850E-001   1.79065155E-001   9.42993970E-001
   1.15000000E+002   9.48169813E-001   1.79065178E-001   9.48169910E-001
   1.20000000E+002   9.52767491E-001   1.79065195E-001   9.52767570E-001
   1.25000000E+002   9.56923953E-001   1.79065208E-001   9.56924018E-001
   1.30000000E+002   9.60668798E-001   1.79065219E-001   9.60668851E-001
   1.35000000E+002   9.64043943E-001   1.79065227E-001   9.64043988E-001
   1.40000000E+002   9.67067337E-001   1.79065234E-001   9.67067374E-001
   1.45000000E+002   9.69864156E-001   1.79065239E-001   9.69864187E-001
   1.50000000E+002   9.72335130E-001   1.79065244E-001   9.72335157E-001
   1.55000000E+002   9.74617375E-001   1.79065247E-001   9.74617398E-001
   1.60000000E+002   9.76704645E-001   1.79065250E-001   9.76704664E-001
   1.65000000E+002   9.78584367E-001   1.79065253E-001   9.78584384E-001
   1.70000000E+002   9.80315237E-001   1.79065255E-001   9.80315252E-001
   1.75000000E+002   9.81862354E-001   1.79065256E-001   9.81862367E-001
   1.80000000E+002   9.83298821E-001   1.79065258E-001   9.83298832E-001
   1.85000000E+002   9.84595500E-001   1.79065259E-001   9.84595510E-001
   1.90000000E+002   9.85797162E-001   1.79065260E-001   9.85797170E-001
   1.95000000E+002   9.86912171E-001   1.79065261E-001   9.86912179E-001
   2.00000000E+002   9.87916236E-001   1.79065262E-001   9.87916243E-001
   2.05000000E+002   9.88855089E-001   1.79065262E-001   9.88855095E-001
   2.10000000E+002   9.89700784E-001   1.79065263E-001   9.89700789E-001
   2.15000000E+002   9.90466697E-001   1.79065263E-001   9.90466701E-001
   2.20000000E+002   9.91190093E-001   1.79065264E-001   9.91190097E-001
   2.25000000E+002   9.91849285E-001   1.79065264E-001   9.91849289E-001
   2.30000000E+002   9.92458875E-001   1.79065265E-001   9.92458878E-001
   2.35000000E+002   9.93033805E-001   1.79065265E-001   9.93033808E-001
   2.40000000E+002   9.93544195E-001   1.79065265E-001   9.93544198E-001
   2.45000000E+002   9.94026805E-001   1.79065265E-001   9.94026807E-001
