# ./jetvheto -in n3lo-fixed-order/H125-LHC13-R04-mb-475-mt-1725-xmur050-xmuf050-log.fxd -xQ 0.0625 -out benchmarks-n3lo-smallR/H125-LHC13-R04-mb-475-mt-1725-xmur050-xmuf050-xQ0625-N3LO+NNLLb.R0-1.0.res -scheme b -order 2 -ptmax 500.01 -fixed_order 3 -small-r -loop-mass t+b -R0 1.0
# process = H    
# collider = pp   
# rts =  13000.000
# M   =    125.000
# muR =     62.500
# muF =     62.500
# Q   =      7.812
# p   =      5.000
# include_c1_squared =   F
# loop_mass  = t+b 
# alphas(MZ) =    0.11800
# alphas(M) =    0.11264
# alphas(muR) =    0.12516
# Rjet =      0.400
# order = NNLL
# pdf name and set = PDF4LHC15_nnlo_mc.LHgrid,    0
# matching scheme = b
# total cross sections [nb] at LO, NLOdiff, NNLOdiff, N3LOdiff =     0.014147    0.020254    0.008998    0.001413
#----------------------------------------------------------------------
# the lines that follow give the jet-veto efficiencies as a function of pt
#         pt            matched eff      resummed eff     fixed-order eff
   2.00000000E+001   4.22922909E-001   1.67438439E-001   4.22880362E-001
   2.50000000E+001   5.10878759E-001   1.67795108E-001   5.10871357E-001
   3.00000000E+001   5.86552755E-001   1.67899573E-001   5.86554172E-001
   3.50000000E+001   6.46972277E-001   1.67937343E-001   6.46974526E-001
   4.00000000E+001   6.94052248E-001   1.67953192E-001   6.94053894E-001
   4.50000000E+001   7.35570827E-001   1.67960622E-001   7.35572065E-001
   5.00000000E+001   7.68983804E-001   1.67964416E-001   7.68984657E-001
   5.50000000E+001   7.98071694E-001   1.67966490E-001   7.98072300E-001
   6.00000000E+001   8.22057558E-001   1.67967688E-001   8.22057983E-001
   6.50000000E+001   8.44160135E-001   1.67968414E-001   8.44160448E-001
   7.00000000E+001   8.61397189E-001   1.67968870E-001   8.61397413E-001
   7.50000000E+001   8.76789555E-001   1.67969167E-001   8.76789719E-001
   8.00000000E+001   8.90691830E-001   1.67969366E-001   8.90691953E-001
   8.50000000E+001   9.03050271E-001   1.67969502E-001   9.03050366E-001
   9.00000000E+001   9.13896404E-001   1.67969598E-001   9.13896477E-001
   9.50000000E+001   9.22639528E-001   1.67969666E-001   9.22639584E-001
   1.00000000E+002   9.30924030E-001   1.67969716E-001   9.30924075E-001
   1.05000000E+002   9.37618922E-001   1.67969753E-001   9.37618957E-001
   1.10000000E+002   9.43720887E-001   1.67969781E-001   9.43720915E-001
   1.15000000E+002   9.49502068E-001   1.67969802E-001   9.49502090E-001
   1.20000000E+002   9.54678849E-001   1.67969819E-001   9.54678868E-001
   1.25000000E+002   9.59003802E-001   1.67969831E-001   9.59003817E-001
   1.30000000E+002   9.62764099E-001   1.67969841E-001   9.62764111E-001
   1.35000000E+002   9.66490447E-001   1.67969849E-001   9.66490458E-001
   1.40000000E+002   9.69880690E-001   1.67969856E-001   9.69880698E-001
   1.45000000E+002   9.72807353E-001   1.67969861E-001   9.72807360E-001
   1.50000000E+002   9.75102899E-001   1.67969865E-001   9.75102905E-001
   1.55000000E+002   9.77708762E-001   1.67969868E-001   9.77708768E-001
   1.60000000E+002   9.80038786E-001   1.67969871E-001   9.80038790E-001
   1.65000000E+002   9.81490607E-001   1.67969873E-001   9.81490611E-001
   1.70000000E+002   9.83324313E-001   1.67969875E-001   9.83324317E-001
   1.75000000E+002   9.85049291E-001   1.67969877E-001   9.85049293E-001
   1.80000000E+002   9.86367562E-001   1.67969878E-001   9.86367565E-001
   1.85000000E+002   9.87583957E-001   1.67969879E-001   9.87583960E-001
   1.90000000E+002   9.88819867E-001   1.67969880E-001   9.88819869E-001
   1.95000000E+002   9.89958230E-001   1.67969881E-001   9.89958231E-001
   2.00000000E+002   9.90961407E-001   1.67969882E-001   9.90961409E-001
   2.05000000E+002   9.91762725E-001   1.67969883E-001   9.91762726E-001
   2.10000000E+002   9.92560878E-001   1.67969883E-001   9.92560879E-001
   2.15000000E+002   9.93188168E-001   1.67969884E-001   9.93188169E-001
   2.20000000E+002   9.94072435E-001   1.67969884E-001   9.94072436E-001
   2.25000000E+002   9.94534057E-001   1.67969884E-001   9.94534058E-001
   2.30000000E+002   9.95094696E-001   1.67969885E-001   9.95094697E-001
   2.35000000E+002   9.95512527E-001   1.67969885E-001   9.95512527E-001
   2.40000000E+002   9.95960635E-001   1.67969885E-001   9.95960635E-001
   2.45000000E+002   9.96474557E-001   1.67969885E-001   9.96474558E-001
