# ./jetvheto -in n3lo-fixed-order/H125-LHC13-R04-mb-475-mt-1725-xmur025-xmuf050-log.fxd -xQ 0.5 -out benchmarks-n3lo-smallR/H125-LHC13-R04-mb-475-mt-1725-xmur025-xmuf050-xQ050-N3LO+NNLLa.R0-1.0.res -scheme a -order 2 -ptmax 500.01 -fixed_order 3 -small-r -loop-mass t+b -R0 1.0
# process = H    
# collider = pp   
# rts =  13000.000
# M   =    125.000
# muR =     31.250
# muF =     62.500
# Q   =     62.500
# p   =      5.000
# include_c1_squared =   F
# loop_mass  = t+b 
# alphas(MZ) =    0.11800
# alphas(M) =    0.11264
# alphas(muR) =    0.14091
# Rjet =      0.400
# order = NNLL
# pdf name and set = PDF4LHC15_nnlo_mc.LHgrid,    0
# matching scheme = a
# total cross sections [nb] at LO, NLOdiff, NNLOdiff, N3LOdiff =     0.017683    0.024805    0.005009   -0.002663
#----------------------------------------------------------------------
# the lines that follow give the jet-veto efficiencies as a function of pt
#         pt            matched eff      resummed eff     fixed-order eff
   2.00000000E+001   4.64922274E-001   4.71791561E-001   4.46607809E-001
   2.50000000E+001   5.46983986E-001   5.35384034E-001   5.29091423E-001
   3.00000000E+001   6.19619500E-001   5.79159616E-001   6.04995778E-001
   3.50000000E+001   6.76942576E-001   6.08899221E-001   6.65141973E-001
   4.00000000E+001   7.19676904E-001   6.28649542E-001   7.10209715E-001
   4.50000000E+001   7.58937000E-001   6.41322794E-001   7.51667982E-001
   5.00000000E+001   7.89396145E-001   6.49101409E-001   7.83854807E-001
   5.50000000E+001   8.16649020E-001   6.53635148E-001   8.12489362E-001
   6.00000000E+001   8.38502509E-001   6.56133625E-001   8.35391522E-001
   6.50000000E+001   8.59967124E-001   6.57429029E-001   8.57640710E-001
   7.00000000E+001   8.75219526E-001   6.58054789E-001   8.73471931E-001
   7.50000000E+001   8.89345961E-001   6.58328376E-001   8.88027309E-001
   8.00000000E+001   9.02461391E-001   6.58426698E-001   9.01457188E-001
   8.50000000E+001   9.14234720E-001   6.58443020E-001   9.13463104E-001
   9.00000000E+001   9.24605284E-001   6.58424505E-001   9.24006495E-001
   9.50000000E+001   9.32359453E-001   6.58393869E-001   9.31891873E-001
   1.00000000E+002   9.40128458E-001   6.58361450E-001   9.39759362E-001
   1.05000000E+002   9.45894574E-001   6.58331544E-001   9.45601410E-001
   1.10000000E+002   9.51291896E-001   6.58305589E-001   9.51056796E-001
   1.15000000E+002   9.56669909E-001   6.58283744E-001   9.56479795E-001
   1.20000000E+002   9.61498466E-001   6.58265647E-001   9.61343529E-001
   1.25000000E+002   9.65231620E-001   6.58250770E-001   9.65104556E-001
   1.30000000E+002   9.68414412E-001   6.58238577E-001   9.68309576E-001
   1.35000000E+002   9.71862408E-001   6.58228586E-001   9.71775236E-001
   1.40000000E+002   9.75005173E-001   6.58220384E-001   9.74932267E-001
   1.45000000E+002   9.77620928E-001   6.58213632E-001   9.77559644E-001
   1.50000000E+002   9.79344253E-001   6.58208055E-001   9.79292492E-001
   1.55000000E+002   9.81834385E-001   6.58203431E-001   9.81790391E-001
   1.60000000E+002   9.84037111E-001   6.58199580E-001   9.83999542E-001
   1.65000000E+002   9.84887632E-001   6.58196361E-001   9.84855464E-001
   1.70000000E+002   9.86556200E-001   6.58193658E-001   9.86528488E-001
   1.75000000E+002   9.88149825E-001   6.58191379E-001   9.88125850E-001
   1.80000000E+002   9.89188107E-001   6.58189449E-001   9.89167305E-001
   1.85000000E+002   9.90139031E-001   6.58187809E-001   9.90120912E-001
   1.90000000E+002   9.91229370E-001   6.58186410E-001   9.91213525E-001
   1.95000000E+002   9.92248561E-001   6.58185211E-001   9.92234660E-001
   2.00000000E+002   9.93118379E-001   6.58184181E-001   9.93106144E-001
   2.05000000E+002   9.93702993E-001   6.58183293E-001   9.93692194E-001
   2.10000000E+002   9.94373368E-001   6.58182524E-001   9.94363808E-001
   2.15000000E+002   9.94779783E-001   6.58181856E-001   9.94771297E-001
   2.20000000E+002   9.95694138E-001   6.58181274E-001   9.95686578E-001
   2.25000000E+002   9.95949545E-001   6.58180766E-001   9.95942802E-001
   2.30000000E+002   9.96385449E-001   6.58180321E-001   9.96379414E-001
   2.35000000E+002   9.96645852E-001   6.58179930E-001   9.96640440E-001
   2.40000000E+002   9.96988885E-001   6.58179586E-001   9.96984021E-001
   2.45000000E+002   9.97490574E-001   6.58179282E-001   9.97486190E-001
