# ./jetvheto -in n3lo-fixed-order/H125-LHC13-R04-mb-475-mt-1725-xmur100-xmuf100-log.fxd -xQ 0.5 -out benchmarks-n3lo-smallR/H125-LHC13-R04-mb-475-mt-1725-xmur100-xmuf100-xQ050-N3LO+NNLLa.res -scheme a -order 2 -ptmax 500.01 -fixed_order 3 -loop-mass t+b
# process = H    
# collider = pp   
# rts =  13000.000
# M   =    125.000
# muR =    125.000
# muF =    125.000
# Q   =     62.500
# p   =      5.000
# include_c1_squared =   F
# loop_mass  = t+b 
# alphas(MZ) =    0.11800
# alphas(M) =    0.11264
# alphas(muR) =    0.11264
# Rjet =      0.400
# order = NNLL
# pdf name and set = PDF4LHC15_nnlo_mc.LHgrid,    0
# matching scheme = a
# total cross sections [nb] at LO, NLOdiff, NNLOdiff, N3LOdiff =     0.012292    0.016994    0.010146    0.003834
#----------------------------------------------------------------------
# the lines that follow give the jet-veto efficiencies as a function of pt
#         pt            matched eff      resummed eff     fixed-order eff
   2.00000000E+001   4.46572443E-001   4.99233530E-001   4.51319368E-001
   2.50000000E+001   5.34572956E-001   5.79366229E-001   5.36825698E-001
   3.00000000E+001   6.08355181E-001   6.36226777E-001   6.08858675E-001
   3.50000000E+001   6.66212676E-001   6.76068906E-001   6.64947540E-001
   4.00000000E+001   7.12728601E-001   7.03467063E-001   7.10355778E-001
   4.50000000E+001   7.50331401E-001   7.21833283E-001   7.47456588E-001
   5.00000000E+001   7.81885195E-001   7.33774358E-001   7.78978104E-001
   5.50000000E+001   8.08595505E-001   7.41294790E-001   8.05930820E-001
   6.00000000E+001   8.31019534E-001   7.45902393E-001   8.28717070E-001
   6.50000000E+001   8.50972655E-001   7.48673914E-001   8.49064316E-001
   7.00000000E+001   8.67811749E-001   7.50329965E-001   8.66268025E-001
   7.50000000E+001   8.81762362E-001   7.51324806E-001   8.80530885E-001
   8.00000000E+001   8.94091769E-001   7.51931786E-001   8.93116387E-001
   8.50000000E+001   9.05233013E-001   7.52310554E-001   9.04462211E-001
   9.00000000E+001   9.14803989E-001   7.52553313E-001   9.14193494E-001
   9.50000000E+001   9.23567830E-001   7.52713362E-001   9.23082480E-001
   1.00000000E+002   9.30899173E-001   7.52821867E-001   9.30511231E-001
   1.05000000E+002   9.37512834E-001   7.52897394E-001   9.37200842E-001
   1.10000000E+002   9.43450978E-001   7.52951253E-001   9.43198469E-001
   1.15000000E+002   9.48793377E-001   7.52990507E-001   9.48587632E-001
   1.20000000E+002   9.53406605E-001   7.53019678E-001   9.53237889E-001
   1.25000000E+002   9.57454515E-001   7.53041733E-001   9.57315271E-001
   1.30000000E+002   9.61482450E-001   7.53058665E-001   9.61366818E-001
   1.35000000E+002   9.65033225E-001   7.53071841E-001   9.64936627E-001
   1.40000000E+002   9.68010325E-001   7.53082218E-001   9.67929190E-001
   1.45000000E+002   9.70867968E-001   7.53090481E-001   9.70799436E-001
   1.50000000E+002   9.73290086E-001   7.53097125E-001   9.73231918E-001
   1.55000000E+002   9.75894658E-001   7.53102513E-001   9.75845039E-001
   1.60000000E+002   9.77658161E-001   7.53106918E-001   9.77615642E-001
   1.65000000E+002   9.79560280E-001   7.53110547E-001   9.79523686E-001
   1.70000000E+002   9.81222421E-001   7.53113556E-001   9.81190793E-001
   1.75000000E+002   9.82840905E-001   7.53116066E-001   9.82813463E-001
   1.80000000E+002   9.84316613E-001   7.53118173E-001   9.84292712E-001
   1.85000000E+002   9.85650482E-001   7.53119950E-001   9.85629591E-001
   1.90000000E+002   9.86584357E-001   7.53121456E-001   9.86566035E-001
   1.95000000E+002   9.87785734E-001   7.53122740E-001   9.87769612E-001
   2.00000000E+002   9.88805507E-001   7.53123838E-001   9.88791277E-001
   2.05000000E+002   9.89680003E-001   7.53124782E-001   9.89667405E-001
   2.10000000E+002   9.90470046E-001   7.53125596E-001   9.90458863E-001
   2.15000000E+002   9.91333260E-001   7.53126300E-001   9.91323305E-001
   2.20000000E+002   9.91964476E-001   7.53126912E-001   9.91955592E-001
   2.25000000E+002   9.92627532E-001   7.53127445E-001   9.92619584E-001
   2.30000000E+002   9.93243060E-001   7.53127912E-001   9.93235932E-001
   2.35000000E+002   9.93811210E-001   7.53128321E-001   9.93804803E-001
   2.40000000E+002   9.94198511E-001   7.53128681E-001   9.94192740E-001
   2.45000000E+002   9.94718820E-001   7.53128998E-001   9.94713610E-001
