# ./jetvheto -in n3lo-fixed-order/H125-LHC13-R04-mb-0-mt-1725-xmur050-xmuf025-log.fxd -xQ 0.25 -out benchmarks-n3lo-smallR/H125-LHC13-R04-mb-0-mt-1725-xmur050-xmuf025-xQ025-NNLO+NNLLa.R0-1.0.res -scheme a -order 2 -ptmax 500.01 -small-r -fixed_order 2 -loop-mass t -R0 1.0
# process = H    
# collider = pp   
# rts =  13000.000
# M   =    125.000
# muR =     62.500
# muF =     31.250
# Q   =     31.250
# p   =      5.000
# include_c1_squared =   F
# loop_mass  = t   
# alphas(MZ) =    0.11800
# alphas(M) =    0.11264
# alphas(muR) =    0.12516
# Rjet =      0.400
# order = NNLL
# pdf name and set = PDF4LHC15_nnlo_mc.LHgrid,    0
# matching scheme = a
# total cross sections [nb] at LO, NLOdiff, NNLOdiff, N3LOdiff =     0.014513    0.020714    0.009723    0.001827
#----------------------------------------------------------------------
# the lines that follow give the jet-veto efficiencies as a function of pt
#         pt            matched eff      resummed eff     fixed-order eff
   2.00000000E+001   4.54885139E-001   4.86065314E-001   4.65116582E-001
   2.50000000E+001   5.43212637E-001   5.57559001E-001   5.50748567E-001
   3.00000000E+001   6.12592818E-001   6.00214271E-001   6.17529161E-001
   3.50000000E+001   6.68085456E-001   6.23657957E-001   6.71215264E-001
   4.00000000E+001   7.13031247E-001   6.36048501E-001   7.15019810E-001
   4.50000000E+001   7.49976130E-001   6.42620305E-001   7.51263285E-001
   5.00000000E+001   7.80919960E-001   6.46207398E-001   7.81771475E-001
   5.50000000E+001   8.06981363E-001   6.48242223E-001   8.07558389E-001
   6.00000000E+001   8.29251215E-001   6.49443445E-001   8.29651327E-001
   6.50000000E+001   8.48445404E-001   6.50179722E-001   8.48728738E-001
   7.00000000E+001   8.65100328E-001   6.50646670E-001   8.65304940E-001
   7.50000000E+001   8.79464286E-001   6.50951975E-001   8.79614533E-001
   8.00000000E+001   8.92181270E-001   6.51157077E-001   8.92293484E-001
   8.50000000E+001   9.03289563E-001   6.51298228E-001   9.03374587E-001
   9.00000000E+001   9.13137126E-001   6.51397481E-001   9.13202411E-001
   9.50000000E+001   9.21768435E-001   6.51468630E-001   9.21819156E-001
   1.00000000E+002   9.29497667E-001   6.51520525E-001   9.29537526E-001
   1.05000000E+002   9.36409401E-001   6.51558974E-001   9.36441049E-001
   1.10000000E+002   9.42537177E-001   6.51587868E-001   9.42562544E-001
   1.15000000E+002   9.48084527E-001   6.51609864E-001   9.48105041E-001
   1.20000000E+002   9.53055088E-001   6.51626808E-001   9.53071810E-001
   1.25000000E+002   9.57457886E-001   6.51640003E-001   9.57471615E-001
   1.30000000E+002   9.61468992E-001   6.51650381E-001   9.61480347E-001
   1.35000000E+002   9.65078873E-001   6.51658620E-001   9.65088327E-001
   1.40000000E+002   9.68353825E-001   6.51665216E-001   9.68361743E-001
   1.45000000E+002   9.71352607E-001   6.51670540E-001   9.71359278E-001
   1.50000000E+002   9.74035219E-001   6.51674868E-001   9.74040869E-001
   1.55000000E+002   9.76473873E-001   6.51678411E-001   9.76478682E-001
   1.60000000E+002   9.78709093E-001   6.51681331E-001   9.78713207E-001
   1.65000000E+002   9.80741938E-001   6.51683751E-001   9.80745474E-001
   1.70000000E+002   9.82567887E-001   6.51685769E-001   9.82570938E-001
   1.75000000E+002   9.84236883E-001   6.51687460E-001   9.84239526E-001
   1.80000000E+002   9.85764000E-001   6.51688884E-001   9.85766299E-001
   1.85000000E+002   9.87145304E-001   6.51690090E-001   9.87147310E-001
   1.90000000E+002   9.88425100E-001   6.51691115E-001   9.88426858E-001
   1.95000000E+002   9.89603597E-001   6.51691991E-001   9.89605142E-001
   2.00000000E+002   9.90661640E-001   6.51692741E-001   9.90663002E-001
   2.05000000E+002   9.91646667E-001   6.51693387E-001   9.91647871E-001
   2.10000000E+002   9.92555365E-001   6.51693945E-001   9.92556433E-001
   2.15000000E+002   9.93344062E-001   6.51694429E-001   9.93345012E-001
   2.20000000E+002   9.94091154E-001   6.51694850E-001   9.94092001E-001
   2.25000000E+002   9.94785094E-001   6.51695217E-001   9.94785851E-001
   2.30000000E+002   9.95400922E-001   6.51695538E-001   9.95401600E-001
   2.35000000E+002   9.95963458E-001   6.51695820E-001   9.95964066E-001
   2.40000000E+002   9.96470256E-001   6.51696068E-001   9.96470804E-001
   2.45000000E+002   9.96948128E-001   6.51696287E-001   9.96948622E-001
