# ./jetvheto -in n3lo-fixed-order/H125-LHC13-R04-mb-475-mt-1725-xmur050-xmuf025-log.fxd -xQ 0.25 -out benchmarks-n3lo-smallR/H125-LHC13-R04-mb-475-mt-1725-xmur050-xmuf025-xQ025-N3LO+NNLLb.R0-2.0.res -scheme b -order 2 -ptmax 500.01 -fixed_order 3 -small-r -loop-mass t+b -R0 2.0
# process = H    
# collider = pp   
# rts =  13000.000
# M   =    125.000
# muR =     62.500
# muF =     31.250
# Q   =     31.250
# p   =      5.000
# include_c1_squared =   F
# loop_mass  = t+b 
# alphas(MZ) =    0.11800
# alphas(M) =    0.11264
# alphas(muR) =    0.12516
# Rjet =      0.400
# order = NNLL
# pdf name and set = PDF4LHC15_nnlo_mc.LHgrid,    0
# matching scheme = b
# total cross sections [nb] at LO, NLOdiff, NNLOdiff, N3LOdiff =     0.012926    0.020318    0.009723    0.001827
#----------------------------------------------------------------------
# the lines that follow give the jet-veto efficiencies as a function of pt
#         pt            matched eff      resummed eff     fixed-order eff
   2.00000000E+001   4.23329268E-001   4.65118140E-001   4.15980545E-001
   2.50000000E+001   5.11562929E-001   5.32028352E-001   5.07800100E-001
   3.00000000E+001   5.82626094E-001   5.71958388E-001   5.80656478E-001
   3.50000000E+001   6.40816809E-001   5.93911677E-001   6.39756651E-001
   4.00000000E+001   6.89547543E-001   6.05517438E-001   6.88975344E-001
   4.50000000E+001   7.30920898E-001   6.11673968E-001   7.30606525E-001
   5.00000000E+001   7.65586571E-001   6.15034698E-001   7.65403404E-001
   5.50000000E+001   7.95876881E-001   6.16941216E-001   7.95769940E-001
   6.00000000E+001   8.21020172E-001   6.18066729E-001   8.20952172E-001
   6.50000000E+001   8.41330565E-001   6.18756614E-001   8.41282612E-001
   7.00000000E+001   8.60389104E-001   6.19194146E-001   8.60356605E-001
   7.50000000E+001   8.76607063E-001   6.19480219E-001   8.76584241E-001
   8.00000000E+001   8.90192765E-001   6.19672403E-001   8.90175714E-001
   8.50000000E+001   9.02728242E-001   6.19804664E-001   9.02715631E-001
   9.00000000E+001   9.13672911E-001   6.19897666E-001   9.13663383E-001
   9.50000000E+001   9.21902351E-001   6.19964334E-001   9.21894582E-001
   1.00000000E+002   9.30783808E-001   6.20012961E-001   9.30777862E-001
   1.05000000E+002   9.37709348E-001   6.20048988E-001   9.37704516E-001
   1.10000000E+002   9.44698405E-001   6.20076063E-001   9.44694592E-001
   1.15000000E+002   9.50723427E-001   6.20096673E-001   9.50720349E-001
   1.20000000E+002   9.55560801E-001   6.20112550E-001   9.55558232E-001
   1.25000000E+002   9.59757632E-001   6.20124914E-001   9.59755469E-001
   1.30000000E+002   9.64022142E-001   6.20134639E-001   9.64020346E-001
   1.35000000E+002   9.67559337E-001   6.20142359E-001   9.67557819E-001
   1.40000000E+002   9.70867041E-001   6.20148540E-001   9.70865759E-001
   1.45000000E+002   9.73930132E-001   6.20153529E-001   9.73929043E-001
   1.50000000E+002   9.76552816E-001   6.20157584E-001   9.76551883E-001
   1.55000000E+002   9.78957678E-001   6.20160904E-001   9.78956876E-001
   1.60000000E+002   9.81460484E-001   6.20163640E-001   9.81459799E-001
   1.65000000E+002   9.83316323E-001   6.20165908E-001   9.83315727E-001
   1.70000000E+002   9.84871963E-001   6.20167798E-001   9.84871440E-001
   1.75000000E+002   9.86707275E-001   6.20169383E-001   9.86706822E-001
   1.80000000E+002   9.87961073E-001   6.20170718E-001   9.87960674E-001
   1.85000000E+002   9.89386746E-001   6.20171848E-001   9.89386397E-001
   1.90000000E+002   9.90522486E-001   6.20172808E-001   9.90522177E-001
   1.95000000E+002   9.91725481E-001   6.20173628E-001   9.91725209E-001
   2.00000000E+002   9.92593554E-001   6.20174332E-001   9.92593312E-001
   2.05000000E+002   9.93441479E-001   6.20174937E-001   9.93441263E-001
   2.10000000E+002   9.94207275E-001   6.20175460E-001   9.94207082E-001
   2.15000000E+002   9.95058557E-001   6.20175913E-001   9.95058385E-001
   2.20000000E+002   9.95659323E-001   6.20176307E-001   9.95659169E-001
   2.25000000E+002   9.96348754E-001   6.20176651E-001   9.96348616E-001
   2.30000000E+002   9.96847444E-001   6.20176952E-001   9.96847320E-001
   2.35000000E+002   9.97218865E-001   6.20177216E-001   9.97218752E-001
   2.40000000E+002   9.97738172E-001   6.20177449E-001   9.97738071E-001
   2.45000000E+002   9.98160808E-001   6.20177654E-001   9.98160716E-001
