# ./jetvheto -in n3lo-fixed-order/H125-LHC13-R04-mb-475-mt-1725-xmur050-xmuf100-log.fxd -xQ 0.5 -out benchmarks-n3lo-smallR/H125-LHC13-R04-mb-475-mt-1725-xmur050-xmuf100-xQ050-NNLO+NNLLa.R0-0.5.res -scheme a -order 2 -ptmax 500.01 -fixed_order 2 -small-r -loop-mass t+b -R0 0.5
# process = H    
# collider = pp   
# rts =  13000.000
# M   =    125.000
# muR =     62.500
# muF =    125.000
# Q   =     62.500
# p   =      5.000
# include_c1_squared =   F
# loop_mass  = t+b 
# alphas(MZ) =    0.11800
# alphas(M) =    0.11264
# alphas(muR) =    0.12516
# Rjet =      0.400
# order = NNLL
# pdf name and set = PDF4LHC15_nnlo_mc.LHgrid,    0
# matching scheme = a
# total cross sections [nb] at LO, NLOdiff, NNLOdiff, N3LOdiff =     0.015023    0.020252    0.008553    0.000949
#----------------------------------------------------------------------
# the lines that follow give the jet-veto efficiencies as a function of pt
#         pt            matched eff      resummed eff     fixed-order eff
   2.00000000E+001   4.67815857E-001   4.85153257E-001   4.52947522E-001
   2.50000000E+001   5.55542893E-001   5.59204135E-001   5.40649579E-001
   3.00000000E+001   6.24494448E-001   6.11022033E-001   6.09146724E-001
   3.50000000E+001   6.79306940E-001   6.46816999E-001   6.64036606E-001
   4.00000000E+001   7.23185455E-001   6.71042184E-001   7.08772946E-001
   4.50000000E+001   7.58751683E-001   6.86974303E-001   7.45785109E-001
   5.00000000E+001   7.88002884E-001   6.97088454E-001   7.76823295E-001
   5.50000000E+001   8.12306638E-001   7.03266078E-001   8.03003904E-001
   6.00000000E+001   8.33031307E-001   7.06903933E-001   8.25500055E-001
   6.50000000E+001   8.50853233E-001   7.08983637E-001   8.44871993E-001
   7.00000000E+001   8.66283669E-001   7.10149108E-001   8.61589128E-001
   7.50000000E+001   8.79792278E-001   7.10796118E-001   8.76128533E-001
   8.00000000E+001   8.91769514E-001   7.11155350E-001   8.88912118E-001
   8.50000000E+001   9.02269767E-001   7.11356260E-001   9.00035777E-001
   9.00000000E+001   9.11710724E-001   7.11470059E-001   9.09955619E-001
   9.50000000E+001   9.20044085E-001   7.11535562E-001   9.18656833E-001
   1.00000000E+002   9.27482327E-001   7.11573952E-001   9.26378220E-001
   1.05000000E+002   9.34165005E-001   7.11596881E-001   9.33279806E-001
   1.10000000E+002   9.40069618E-001   7.11610842E-001   9.39354824E-001
   1.15000000E+002   9.45436687E-001   7.11619505E-001   9.44855267E-001
   1.20000000E+002   9.50187303E-001   7.11624981E-001   9.49711111E-001
   1.25000000E+002   9.54536218E-001   7.11628504E-001   9.54143526E-001
   1.30000000E+002   9.58441137E-001   7.11630810E-001   9.58115228E-001
   1.35000000E+002   9.61995340E-001   7.11632345E-001   9.61723200E-001
   1.40000000E+002   9.65160535E-001   7.11633382E-001   9.64931972E-001
   1.45000000E+002   9.68107431E-001   7.11634094E-001   9.67914407E-001
   1.50000000E+002   9.70712855E-001   7.11634589E-001   9.70548997E-001
   1.55000000E+002   9.73121832E-001   7.11634939E-001   9.72982040E-001
   1.60000000E+002   9.75309938E-001   7.11635189E-001   9.75190129E-001
   1.65000000E+002   9.77296874E-001   7.11635370E-001   9.77193733E-001
   1.70000000E+002   9.79124896E-001   7.11635503E-001   9.79035734E-001
   1.75000000E+002   9.80765885E-001   7.11635601E-001   9.80688502E-001
   1.80000000E+002   9.82280821E-001   7.11635675E-001   9.82213406E-001
   1.85000000E+002   9.83656420E-001   7.11635731E-001   9.83597479E-001
   1.90000000E+002   9.84925110E-001   7.11635774E-001   9.84873402E-001
   1.95000000E+002   9.86111549E-001   7.11635807E-001   9.86066038E-001
   2.00000000E+002   9.87179365E-001   7.11635833E-001   9.87139184E-001
   2.05000000E+002   9.88174027E-001   7.11635854E-001   9.88138448E-001
   2.10000000E+002   9.89077134E-001   7.11635870E-001   9.89045540E-001
   2.15000000E+002   9.89887004E-001   7.11635883E-001   9.89858874E-001
   2.20000000E+002   9.90655570E-001   7.11635894E-001   9.90630459E-001
   2.25000000E+002   9.91355932E-001   7.11635903E-001   9.91333461E-001
   2.30000000E+002   9.92001442E-001   7.11635910E-001   9.91981285E-001
   2.35000000E+002   9.92608938E-001   7.11635916E-001   9.92590817E-001
   2.40000000E+002   9.93148768E-001   7.11635921E-001   9.93132441E-001
   2.45000000E+002   9.93662614E-001   7.11635925E-001   9.93647873E-001
