# ./jetvheto -in n3lo-fixed-order/H125-LHC13-R04-mb-475-mt-1725-xmur050-xmuf100-log.fxd -xQ 0.25 -out benchmarks-n3lo-smallR/H125-LHC13-R04-mb-475-mt-1725-xmur050-xmuf100-xQ025-N3LO+NNLLb.R0-1.0.res -scheme b -order 2 -ptmax 500.01 -fixed_order 3 -small-r -loop-mass t+b -R0 1.0
# process = H    
# collider = pp   
# rts =  13000.000
# M   =    125.000
# muR =     62.500
# muF =    125.000
# Q   =     31.250
# p   =      5.000
# include_c1_squared =   F
# loop_mass  = t+b 
# alphas(MZ) =    0.11800
# alphas(M) =    0.11264
# alphas(muR) =    0.12516
# Rjet =      0.400
# order = NNLL
# pdf name and set = PDF4LHC15_nnlo_mc.LHgrid,    0
# matching scheme = b
# total cross sections [nb] at LO, NLOdiff, NNLOdiff, N3LOdiff =     0.015023    0.020252    0.008553    0.000949
#----------------------------------------------------------------------
# the lines that follow give the jet-veto efficiencies as a function of pt
#         pt            matched eff      resummed eff     fixed-order eff
   2.00000000E+001   4.28071145E-001   4.81229701E-001   4.22022001E-001
   2.50000000E+001   5.13798908E-001   5.46500820E-001   5.10305136E-001
   3.00000000E+001   5.89833692E-001   5.84899394E-001   5.88327259E-001
   3.50000000E+001   6.48983056E-001   6.05798336E-001   6.48206817E-001
   4.00000000E+001   6.96999112E-001   6.16777084E-001   6.96568548E-001
   4.50000000E+001   7.36060470E-001   6.22579384E-001   7.35802106E-001
   5.00000000E+001   7.69542239E-001   6.25740021E-001   7.69386078E-001
   5.50000000E+001   7.98409317E-001   6.27530841E-001   7.98313706E-001
   6.00000000E+001   8.22610183E-001   6.28587294E-001   8.22547640E-001
   6.50000000E+001   8.44659522E-001   6.29234565E-001   8.44619571E-001
   7.00000000E+001   8.63085880E-001   6.29644960E-001   8.63058779E-001
   7.50000000E+001   8.77940966E-001   6.29913243E-001   8.77921035E-001
   8.00000000E+001   8.91068327E-001   6.30093454E-001   8.91053486E-001
   8.50000000E+001   9.03137387E-001   6.30217466E-001   9.03126493E-001
   9.00000000E+001   9.13253641E-001   6.30304662E-001   9.13245267E-001
   9.50000000E+001   9.22708362E-001   6.30367166E-001   9.22702012E-001
   1.00000000E+002   9.30323925E-001   6.30412755E-001   9.30318877E-001
   1.05000000E+002   9.37206949E-001   6.30446530E-001   9.37202914E-001
   1.10000000E+002   9.43443707E-001   6.30471911E-001   9.43440479E-001
   1.15000000E+002   9.49018685E-001   6.30491233E-001   9.49016071E-001
   1.20000000E+002   9.53756787E-001   6.30506117E-001   9.53754638E-001
   1.25000000E+002   9.57797050E-001   6.30517708E-001   9.57795252E-001
   1.30000000E+002   9.62079135E-001   6.30526825E-001   9.62077662E-001
   1.35000000E+002   9.65783710E-001   6.30534062E-001   9.65782485E-001
   1.40000000E+002   9.68763984E-001   6.30539856E-001   9.68762947E-001
   1.45000000E+002   9.71688515E-001   6.30544532E-001   9.71687638E-001
   1.50000000E+002   9.74089788E-001   6.30548334E-001   9.74089037E-001
   1.55000000E+002   9.76919414E-001   6.30551447E-001   9.76918783E-001
   1.60000000E+002   9.78485866E-001   6.30554011E-001   9.78485312E-001
   1.65000000E+002   9.80405789E-001   6.30556137E-001   9.80405311E-001
   1.70000000E+002   9.82027103E-001   6.30557909E-001   9.82026686E-001
   1.75000000E+002   9.83689631E-001   6.30559395E-001   9.83689270E-001
   1.80000000E+002   9.85195180E-001   6.30560646E-001   9.85194866E-001
   1.85000000E+002   9.86548623E-001   6.30561705E-001   9.86548347E-001
   1.90000000E+002   9.87302282E-001   6.30562606E-001   9.87302036E-001
   1.95000000E+002   9.88556482E-001   6.30563375E-001   9.88556267E-001
   2.00000000E+002   9.89579941E-001   6.30564034E-001   9.89579750E-001
   2.05000000E+002   9.90408129E-001   6.30564601E-001   9.90407959E-001
   2.10000000E+002   9.91151588E-001   6.30565091E-001   9.91151437E-001
   2.15000000E+002   9.92075337E-001   6.30565516E-001   9.92075203E-001
   2.20000000E+002   9.92639422E-001   6.30565886E-001   9.92639301E-001
   2.25000000E+002   9.93299268E-001   6.30566208E-001   9.93299159E-001
   2.30000000E+002   9.93914644E-001   6.30566490E-001   9.93914547E-001
   2.35000000E+002   9.94476667E-001   6.30566738E-001   9.94476580E-001
   2.40000000E+002   9.94777114E-001   6.30566956E-001   9.94777034E-001
   2.45000000E+002   9.95317444E-001   6.30567148E-001   9.95317372E-001
