# ./jetvheto -in n3lo-fixed-order/H125-LHC13-R04-mb-0-mt-1725-xmur100-xmuf100-log.fxd -xQ 0.03125 -out benchmarks-n3lo-smallR/H125-LHC13-R04-mb-0-mt-1725-xmur100-xmuf100-xQ03125-NNLO+NNLLa.R0-1.0.res -scheme a -order 2 -ptmax 500.01 -small-r -fixed_order 2 -loop-mass t -R0 1.0
# process = H    
# collider = pp   
# rts =  13000.000
# M   =    125.000
# muR =    125.000
# muF =    125.000
# Q   =      3.906
# p   =      5.000
# include_c1_squared =   F
# loop_mass  = t   
# alphas(MZ) =    0.11800
# alphas(M) =    0.11264
# alphas(muR) =    0.11264
# Rjet =      0.400
# order = NNLL
# pdf name and set = PDF4LHC15_nnlo_mc.LHgrid,    0
# matching scheme = a
# total cross sections [nb] at LO, NLOdiff, NNLOdiff, N3LOdiff =     0.013801    0.017514    0.010146    0.003834
#----------------------------------------------------------------------
# the lines that follow give the jet-veto efficiencies as a function of pt
#         pt            matched eff      resummed eff     fixed-order eff
   2.00000000E+001   5.12103597E-001  -6.30401528E-002   5.12111256E-001
   2.50000000E+001   5.93113773E-001  -6.30418832E-002   5.93117916E-001
   3.00000000E+001   6.55181750E-001  -6.30423876E-002   6.55183932E-001
   3.50000000E+001   7.04311450E-001  -6.30425698E-002   7.04312652E-001
   4.00000000E+001   7.44111507E-001  -6.30426462E-002   7.44112204E-001
   4.50000000E+001   7.76740734E-001  -6.30426820E-002   7.76741158E-001
   5.00000000E+001   8.03999455E-001  -6.30427002E-002   8.03999724E-001
   5.50000000E+001   8.26956310E-001  -6.30427102E-002   8.26956486E-001
   6.00000000E+001   8.46582300E-001  -6.30427160E-002   8.46582419E-001
   6.50000000E+001   8.63449541E-001  -6.30427195E-002   8.63449624E-001
   7.00000000E+001   8.77952869E-001  -6.30427217E-002   8.77952928E-001
   7.50000000E+001   8.90657590E-001  -6.30427231E-002   8.90657633E-001
   8.00000000E+001   9.01784556E-001  -6.30427241E-002   9.01784587E-001
   8.50000000E+001   9.11498459E-001  -6.30427247E-002   9.11498483E-001
   9.00000000E+001   9.20097808E-001  -6.30427252E-002   9.20097826E-001
   9.50000000E+001   9.27666356E-001  -6.30427255E-002   9.27666371E-001
   1.00000000E+002   9.34417034E-001  -6.30427258E-002   9.34417045E-001
   1.05000000E+002   9.40434113E-001  -6.30427259E-002   9.40434122E-001
   1.10000000E+002   9.45748982E-001  -6.30427261E-002   9.45748990E-001
   1.15000000E+002   9.50569347E-001  -6.30427262E-002   9.50569353E-001
   1.20000000E+002   9.54867357E-001  -6.30427263E-002   9.54867362E-001
   1.25000000E+002   9.58753489E-001  -6.30427263E-002   9.58753493E-001
   1.30000000E+002   9.62267889E-001  -6.30427264E-002   9.62267892E-001
   1.35000000E+002   9.65429417E-001  -6.30427264E-002   9.65429419E-001
   1.40000000E+002   9.68287979E-001  -6.30427264E-002   9.68287981E-001
   1.45000000E+002   9.70915957E-001  -6.30427265E-002   9.70915959E-001
   1.50000000E+002   9.73259575E-001  -6.30427265E-002   9.73259576E-001
   1.55000000E+002   9.75426755E-001  -6.30427265E-002   9.75426757E-001
   1.60000000E+002   9.77405589E-001  -6.30427265E-002   9.77405590E-001
   1.65000000E+002   9.79196167E-001  -6.30427265E-002   9.79196168E-001
   1.70000000E+002   9.80841716E-001  -6.30427265E-002   9.80841717E-001
   1.75000000E+002   9.82320551E-001  -6.30427265E-002   9.82320552E-001
   1.80000000E+002   9.83692327E-001  -6.30427265E-002   9.83692327E-001
   1.85000000E+002   9.84936490E-001  -6.30427266E-002   9.84936490E-001
   1.90000000E+002   9.86089030E-001  -6.30427266E-002   9.86089030E-001
   1.95000000E+002   9.87154723E-001  -6.30427266E-002   9.87154723E-001
   2.00000000E+002   9.88120113E-001  -6.30427266E-002   9.88120114E-001
   2.05000000E+002   9.89021652E-001  -6.30427266E-002   9.89021653E-001
   2.10000000E+002   9.89836384E-001  -6.30427266E-002   9.89836384E-001
   2.15000000E+002   9.90579634E-001  -6.30427266E-002   9.90579634E-001
   2.20000000E+002   9.91277142E-001  -6.30427266E-002   9.91277142E-001
   2.25000000E+002   9.91915135E-001  -6.30427266E-002   9.91915136E-001
   2.30000000E+002   9.92505931E-001  -6.30427266E-002   9.92505931E-001
   2.35000000E+002   9.93060180E-001  -6.30427266E-002   9.93060180E-001
   2.40000000E+002   9.93557338E-001  -6.30427266E-002   9.93557338E-001
   2.45000000E+002   9.94025107E-001  -6.30427266E-002   9.94025107E-001
