# ./jetvheto -in n3lo-fixed-order/H125-LHC13-R04-mb-475-mt-1725-xmur200-xmuf100-log.fxd -xQ 0.25 -out benchmarks-n3lo-smallR/H125-LHC13-R04-mb-475-mt-1725-xmur200-xmuf100-xQ025-NNLO+NNLLa.R0-2.0.res -scheme a -order 2 -ptmax 500.01 -fixed_order 2 -small-r -loop-mass t+b -R0 2.0
# process = H    
# collider = pp   
# rts =  13000.000
# M   =    125.000
# muR =    250.000
# muF =    125.000
# Q   =     31.250
# p   =      5.000
# include_c1_squared =   F
# loop_mass  = t+b 
# alphas(MZ) =    0.11800
# alphas(M) =    0.11264
# alphas(muR) =    0.10244
# Rjet =      0.400
# order = NNLL
# pdf name and set = PDF4LHC15_nnlo_mc.LHgrid,    0
# matching scheme = a
# total cross sections [nb] at LO, NLOdiff, NNLOdiff, N3LOdiff =     0.010243    0.014468    0.010526    0.005600
#----------------------------------------------------------------------
# the lines that follow give the jet-veto efficiencies as a function of pt
#         pt            matched eff      resummed eff     fixed-order eff
   2.00000000E+001   5.02700049E-001   5.55954811E-001   5.29433236E-001
   2.50000000E+001   5.88731582E-001   6.28299791E-001   6.05818211E-001
   3.00000000E+001   6.54231267E-001   6.70777071E-001   6.64452408E-001
   3.50000000E+001   7.05086974E-001   6.93869568E-001   7.11123136E-001
   4.00000000E+001   7.45290507E-001   7.05992565E-001   7.48917608E-001
   4.50000000E+001   7.77930045E-001   7.12397180E-001   7.80175121E-001
   5.00000000E+001   8.04955011E-001   7.15885166E-001   8.06390774E-001
   5.50000000E+001   8.27590436E-001   7.17861223E-001   8.28537610E-001
   6.00000000E+001   8.46918745E-001   7.19026868E-001   8.47561956E-001
   6.50000000E+001   8.63529646E-001   7.19741009E-001   8.63977779E-001
   7.00000000E+001   8.77874387E-001   7.20193790E-001   8.78193766E-001
   7.50000000E+001   8.90342684E-001   7.20489776E-001   8.90574977E-001
   8.00000000E+001   9.01325299E-001   7.20688594E-001   9.01497366E-001
   8.50000000E+001   9.10920828E-001   7.20825408E-001   9.11050345E-001
   9.00000000E+001   9.19474444E-001   7.20921606E-001   9.19573396E-001
   9.50000000E+001   9.27006155E-001   7.20990563E-001   9.27082751E-001
   1.00000000E+002   9.33711240E-001   7.21040857E-001   9.33771248E-001
   1.05000000E+002   9.39726835E-001   7.21078119E-001   9.39774369E-001
   1.10000000E+002   9.45036631E-001   7.21106120E-001   9.45074658E-001
   1.15000000E+002   9.49853894E-001   7.21127437E-001   9.49884601E-001
   1.20000000E+002   9.54120359E-001   7.21143857E-001   9.54145364E-001
   1.25000000E+002   9.58031238E-001   7.21156644E-001   9.58051762E-001
   1.30000000E+002   9.61548027E-001   7.21166702E-001   9.61564997E-001
   1.35000000E+002   9.64743451E-001   7.21174686E-001   9.64757578E-001
   1.40000000E+002   9.67619083E-001   7.21181078E-001   9.67630916E-001
   1.45000000E+002   9.70270418E-001   7.21186237E-001   9.70280390E-001
   1.50000000E+002   9.72647360E-001   7.21190431E-001   9.72655808E-001
   1.55000000E+002   9.74846321E-001   7.21193865E-001   9.74853517E-001
   1.60000000E+002   9.76830637E-001   7.21196694E-001   9.76836796E-001
   1.65000000E+002   9.78650245E-001   7.21199039E-001   9.78655541E-001
   1.70000000E+002   9.80316778E-001   7.21200995E-001   9.80321351E-001
   1.75000000E+002   9.81827146E-001   7.21202633E-001   9.81831112E-001
   1.80000000E+002   9.83215203E-001   7.21204014E-001   9.83218654E-001
   1.85000000E+002   9.84487135E-001   7.21205182E-001   9.84490151E-001
   1.90000000E+002   9.85656631E-001   7.21206176E-001   9.85659275E-001
   1.95000000E+002   9.86746733E-001   7.21207024E-001   9.86749058E-001
   2.00000000E+002   9.87736549E-001   7.21207752E-001   9.87738601E-001
   2.05000000E+002   9.88654938E-001   7.21208378E-001   9.88656754E-001
   2.10000000E+002   9.89495242E-001   7.21208918E-001   9.89496854E-001
   2.15000000E+002   9.90254614E-001   7.21209387E-001   9.90256049E-001
   2.20000000E+002   9.90968888E-001   7.21209795E-001   9.90970169E-001
   2.25000000E+002   9.91623481E-001   7.21210150E-001   9.91624627E-001
   2.30000000E+002   9.92227245E-001   7.21210462E-001   9.92228272E-001
   2.35000000E+002   9.92790079E-001   7.21210735E-001   9.92791002E-001
   2.40000000E+002   9.93298633E-001   7.21210975E-001   9.93299464E-001
   2.45000000E+002   9.93779891E-001   7.21211187E-001   9.93780642E-001
