# ./jetvheto -in n3lo-fixed-order/H125-LHC13-R04-mb-0-mt-1725-xmur100-xmuf100-log.fxd -xQ 0.333 -out benchmarks-n3lo-smallR/H125-LHC13-R04-mb-0-mt-1725-xmur100-xmuf100-xQ033-N3LO+NNLLb.R0-1.0.res -scheme b -order 2 -ptmax 500.01 -small-r -fixed_order 3 -loop-mass t -R0 1.0
# process = H    
# collider = pp   
# rts =  13000.000
# M   =    125.000
# muR =    125.000
# muF =    125.000
# Q   =     41.625
# p   =      5.000
# include_c1_squared =   F
# loop_mass  = t   
# alphas(MZ) =    0.11800
# alphas(M) =    0.11264
# alphas(muR) =    0.11264
# Rjet =      0.400
# order = NNLL
# pdf name and set = PDF4LHC15_nnlo_mc.LHgrid,    0
# matching scheme = b
# total cross sections [nb] at LO, NLOdiff, NNLOdiff, N3LOdiff =     0.013801    0.017514    0.010146    0.003834
#----------------------------------------------------------------------
# the lines that follow give the jet-veto efficiencies as a function of pt
#         pt            matched eff      resummed eff     fixed-order eff
   2.00000000E+001   4.43409656E-001   5.27685543E-001   4.21593782E-001
   2.50000000E+001   5.27375409E-001   6.07807708E-001   5.13960990E-001
   3.00000000E+001   5.98841571E-001   6.61874995E-001   5.91015610E-001
   3.50000000E+001   6.55416587E-001   6.96834694E-001   6.50645918E-001
   4.00000000E+001   7.01782817E-001   7.18496416E-001   6.98836983E-001
   4.50000000E+001   7.39778768E-001   7.31525879E-001   7.37928057E-001
   5.00000000E+001   7.72204094E-001   7.39285346E-001   7.71030473E-001
   5.50000000E+001   8.00032057E-001   7.43942382E-001   7.99275639E-001
   6.00000000E+001   8.23561382E-001   7.46791248E-001   8.23059681E-001
   6.50000000E+001   8.44581209E-001   7.48577237E-001   8.44243758E-001
   7.00000000E+001   8.62304497E-001   7.49726436E-001   8.62070819E-001
   7.50000000E+001   8.77092441E-001   7.50484984E-001   8.76925464E-001
   8.00000000E+001   8.90088694E-001   7.50997827E-001   8.89967148E-001
   8.50000000E+001   9.01818073E-001   7.51352304E-001   9.01728487E-001
   9.00000000E+001   9.11815238E-001   7.51602321E-001   9.11747759E-001
   9.50000000E+001   9.20960947E-001   7.51781934E-001   9.20909613E-001
   1.00000000E+002   9.28619381E-001   7.51913146E-001   9.28579537E-001
   1.05000000E+002   9.35485902E-001   7.52010473E-001   9.35454626E-001
   1.10000000E+002   9.41653454E-001   7.52083676E-001   9.41628668E-001
   1.15000000E+002   9.47196988E-001   7.52139439E-001   9.47177133E-001
   1.20000000E+002   9.52012963E-001   7.52182417E-001   9.51996886E-001
   1.25000000E+002   9.56187093E-001   7.52215898E-001   9.56173934E-001
   1.30000000E+002   9.60367100E-001   7.52242241E-001   9.60356305E-001
   1.35000000E+002   9.64017376E-001   7.52263157E-001   9.64008440E-001
   1.40000000E+002   9.67099462E-001   7.52279908E-001   9.67091995E-001
   1.45000000E+002   9.70041170E-001   7.52293428E-001   9.70034899E-001
   1.50000000E+002   9.72532802E-001   7.52304421E-001   9.72527497E-001
   1.55000000E+002   9.75216945E-001   7.52313422E-001   9.75212455E-001
   1.60000000E+002   9.77044958E-001   7.52320839E-001   9.77041107E-001
   1.65000000E+002   9.79001355E-001   7.52326987E-001   9.78998050E-001
   1.70000000E+002   9.80712449E-001   7.52332114E-001   9.80709596E-001
   1.75000000E+002   9.82373091E-001   7.52336411E-001   9.82370623E-001
   1.80000000E+002   9.83897341E-001   7.52340031E-001   9.83895197E-001
   1.85000000E+002   9.85266393E-001   7.52343095E-001   9.85264523E-001
   1.90000000E+002   9.86227110E-001   7.52345700E-001   9.86225466E-001
   1.95000000E+002   9.87457939E-001   7.52347924E-001   9.87456496E-001
   2.00000000E+002   9.88502378E-001   7.52349832E-001   9.88501106E-001
   2.05000000E+002   9.89401092E-001   7.52351473E-001   9.89399966E-001
   2.10000000E+002   9.90205115E-001   7.52352892E-001   9.90204115E-001
   2.15000000E+002   9.91096607E-001   7.52354121E-001   9.91095719E-001
   2.20000000E+002   9.91742598E-001   7.52355190E-001   9.91741805E-001
   2.25000000E+002   9.92423019E-001   7.52356123E-001   9.92422310E-001
   2.30000000E+002   9.93057237E-001   7.52356939E-001   9.93056602E-001
   2.35000000E+002   9.93644073E-001   7.52357656E-001   9.93643503E-001
   2.40000000E+002   9.94042280E-001   7.52358286E-001   9.94041766E-001
   2.45000000E+002   9.94575858E-001   7.52358843E-001   9.94575393E-001
