# ./jetvheto -in n3lo-fixed-order/H125-LHC13-R04-heft-xmur050-xmuf050-log.fxd -xQ 0.25 -out benchmarks-n3lo-smallR/H125-LHC13-R04-heft-xmur050-xmuf050-xQ025-N3LO+NNLLa.R0-1.0.res -scheme a -order 2 -ptmax 500.01 -fixed_order 3 -small-r -R0 1.0
# process = H    
# collider = pp   
# rts =  13000.000
# M   =    125.000
# muR =     62.500
# muF =     62.500
# Q   =     31.250
# p   =      5.000
# include_c1_squared =   F
# loop_mass  = none
# alphas(MZ) =    0.11800
# alphas(M) =    0.11264
# alphas(muR) =    0.12516
# Rjet =      0.400
# order = NNLL
# pdf name and set = PDF4LHC15_nnlo_mc.LHgrid,    0
# matching scheme = a
# total cross sections [nb] at LO, NLOdiff, NNLOdiff, N3LOdiff =     0.015055    0.019611    0.008998    0.001413
#----------------------------------------------------------------------
# the lines that follow give the jet-veto efficiencies as a function of pt
#         pt            matched eff      resummed eff     fixed-order eff
   2.00000000E+001   4.49673521E-001   4.91899163E-001   4.50065620E-001
   2.50000000E+001   5.35121892E-001   5.61050378E-001   5.35117843E-001
   3.00000000E+001   6.07674882E-001   6.01998396E-001   6.07875407E-001
   3.50000000E+001   6.65320523E-001   6.24391096E-001   6.65471707E-001
   4.00000000E+001   7.10202836E-001   6.36189452E-001   7.10255567E-001
   4.50000000E+001   7.49420971E-001   6.42435436E-001   7.49462038E-001
   5.00000000E+001   7.80870161E-001   6.45841054E-001   7.80889863E-001
   5.50000000E+001   8.08241732E-001   6.47771757E-001   8.08255100E-001
   6.00000000E+001   8.30649098E-001   6.48911103E-001   8.30655804E-001
   6.50000000E+001   8.51353564E-001   6.49609301E-001   8.51359759E-001
   7.00000000E+001   8.67398485E-001   6.50052039E-001   8.67401068E-001
   7.50000000E+001   8.81719832E-001   6.50341489E-001   8.81721105E-001
   8.00000000E+001   8.94629992E-001   6.50535929E-001   8.94630807E-001
   8.50000000E+001   9.06075113E-001   6.50669737E-001   9.06075690E-001
   9.00000000E+001   9.16193863E-001   6.50763824E-001   9.16194285E-001
   9.50000000E+001   9.24302759E-001   6.50831269E-001   9.24302841E-001
   1.00000000E+002   9.31969199E-001   6.50880461E-001   9.31969203E-001
   1.05000000E+002   9.38114155E-001   6.50916907E-001   9.38114001E-001
   1.10000000E+002   9.43779961E-001   6.50944295E-001   9.43779750E-001
   1.15000000E+002   9.49103163E-001   6.50965145E-001   9.49102964E-001
   1.20000000E+002   9.53905452E-001   6.50981206E-001   9.53905269E-001
   1.25000000E+002   9.57868542E-001   6.50993713E-001   9.57868349E-001
   1.30000000E+002   9.61333461E-001   6.51003551E-001   9.61333266E-001
   1.35000000E+002   9.64798083E-001   6.51011360E-001   9.64797911E-001
   1.40000000E+002   9.67934371E-001   6.51017613E-001   9.67934219E-001
   1.45000000E+002   9.70623861E-001   6.51022659E-001   9.70623723E-001
   1.50000000E+002   9.72725524E-001   6.51026762E-001   9.72725389E-001
   1.55000000E+002   9.75127899E-001   6.51030120E-001   9.75127782E-001
   1.60000000E+002   9.77303375E-001   6.51032888E-001   9.77303274E-001
   1.65000000E+002   9.78635591E-001   6.51035182E-001   9.78635491E-001
   1.70000000E+002   9.80367961E-001   6.51037094E-001   9.80367872E-001
   1.75000000E+002   9.81990498E-001   6.51038697E-001   9.81990419E-001
   1.80000000E+002   9.83240609E-001   6.51040047E-001   9.83240537E-001
   1.85000000E+002   9.84384249E-001   6.51041190E-001   9.84384183E-001
   1.90000000E+002   9.85564485E-001   6.51042162E-001   9.85564426E-001
   1.95000000E+002   9.86652514E-001   6.51042992E-001   9.86652461E-001
   2.00000000E+002   9.87623714E-001   6.51043703E-001   9.87623667E-001
   2.05000000E+002   9.88411639E-001   6.51044316E-001   9.88411596E-001
   2.10000000E+002   9.89210622E-001   6.51044845E-001   9.89210583E-001
   2.15000000E+002   9.89833257E-001   6.51045303E-001   9.89833220E-001
   2.20000000E+002   9.90708731E-001   6.51045702E-001   9.90708699E-001
   2.25000000E+002   9.91187937E-001   6.51046050E-001   9.91187907E-001
   2.30000000E+002   9.91768573E-001   6.51046354E-001   9.91768546E-001
   2.35000000E+002   9.92213233E-001   6.51046621E-001   9.92213208E-001
   2.40000000E+002   9.92690567E-001   6.51046857E-001   9.92690544E-001
   2.45000000E+002   9.93242803E-001   6.51047064E-001   9.93242783E-001
