# ./jetvheto -in n3lo-fixed-order/H125-LHC13-R04-heft-xmur100-xmuf100-log.fxd -xQ 0.333 -out benchmarks-n3lo-smallR/H125-LHC13-R04-heft-xmur100-xmuf100-xQ033-NNLO+NNLLb.R0-1.5.res -scheme b -order 2 -ptmax 500.01 -fixed_order 2 -small-r -R0 1.5
# process = H    
# collider = pp   
# rts =  13000.000
# M   =    125.000
# muR =    125.000
# muF =    125.000
# Q   =     41.625
# p   =      5.000
# include_c1_squared =   F
# loop_mass  = none
# alphas(MZ) =    0.11800
# alphas(M) =    0.11264
# alphas(muR) =    0.11264
# Rjet =      0.400
# order = NNLL
# pdf name and set = PDF4LHC15_nnlo_mc.LHgrid,    0
# matching scheme = b
# total cross sections [nb] at LO, NLOdiff, NNLOdiff, N3LOdiff =     0.012945    0.016716    0.010146    0.003834
#----------------------------------------------------------------------
# the lines that follow give the jet-veto efficiencies as a function of pt
#         pt            matched eff      resummed eff     fixed-order eff
   2.00000000E+001   4.04040622E-001   5.22948923E-001   3.33152974E-001
   2.50000000E+001   4.85447385E-001   6.01396653E-001   4.42354030E-001
   3.00000000E+001   5.52584962E-001   6.54309274E-001   5.26280770E-001
   3.50000000E+001   6.08608457E-001   6.88512558E-001   5.92590428E-001
   4.00000000E+001   6.56156288E-001   7.09700922E-001   6.46413459E-001
   4.50000000E+001   6.96619928E-001   7.22443341E-001   6.90650611E-001
   5.00000000E+001   7.31351018E-001   7.30030762E-001   7.27636368E-001
   5.50000000E+001   7.61187253E-001   7.34584047E-001   7.58824117E-001
   6.00000000E+001   7.87049322E-001   7.37369233E-001   7.85509225E-001
   6.50000000E+001   8.09531279E-001   7.39115207E-001   8.08501674E-001
   7.00000000E+001   8.29013983E-001   7.40238620E-001   8.28308351E-001
   7.50000000E+001   8.46097557E-001   7.40980129E-001   8.45602652E-001
   8.00000000E+001   8.61097138E-001   7.41481443E-001   8.60742611E-001
   8.50000000E+001   8.74241976E-001   7.41827947E-001   8.73982907E-001
   9.00000000E+001   8.85955492E-001   7.42072339E-001   8.85762882E-001
   9.50000000E+001   8.96274602E-001   7.42247910E-001   8.96129047E-001
   1.00000000E+002   9.05459242E-001   7.42376169E-001   9.05347624E-001
   1.05000000E+002   9.13661455E-001   7.42471304E-001   9.13574722E-001
   1.10000000E+002   9.20957561E-001   7.42542859E-001   9.20889329E-001
   1.15000000E+002   9.27550044E-001   7.42597367E-001   9.27495781E-001
   1.20000000E+002   9.33451164E-001   7.42639377E-001   9.33407561E-001
   1.25000000E+002   9.38775190E-001   7.42672104E-001   9.38739831E-001
   1.30000000E+002   9.43573211E-001   7.42697854E-001   9.43544289E-001
   1.35000000E+002   9.47945868E-001   7.42718299E-001   9.47922026E-001
   1.40000000E+002   9.51853111E-001   7.42734672E-001   9.51833307E-001
   1.45000000E+002   9.55474490E-001   7.42747888E-001   9.55457933E-001
   1.50000000E+002   9.58700428E-001   7.42758634E-001   9.58686494E-001
   1.55000000E+002   9.61662318E-001   7.42767432E-001   9.61650523E-001
   1.60000000E+002   9.64390196E-001   7.42774682E-001   9.64380158E-001
   1.65000000E+002   9.66861868E-001   7.42780692E-001   9.66853279E-001
   1.70000000E+002   9.69153918E-001   7.42785703E-001   9.69146535E-001
   1.75000000E+002   9.71224732E-001   7.42789903E-001   9.71218357E-001
   1.80000000E+002   9.73151577E-001   7.42793441E-001   9.73146048E-001
   1.85000000E+002   9.74903248E-001   7.42796436E-001   9.74898433E-001
   1.90000000E+002   9.76523196E-001   7.42798983E-001   9.76518987E-001
   1.95000000E+002   9.78045074E-001   7.42801158E-001   9.78041382E-001
   2.00000000E+002   9.79436254E-001   7.42803022E-001   9.79433004E-001
   2.05000000E+002   9.80729470E-001   7.42804627E-001   9.80726600E-001
   2.10000000E+002   9.81915446E-001   7.42806013E-001   9.81912904E-001
   2.15000000E+002   9.82999507E-001   7.42807214E-001   9.82997248E-001
   2.20000000E+002   9.84020897E-001   7.42808259E-001   9.84018885E-001
   2.25000000E+002   9.84963843E-001   7.42809171E-001   9.84962045E-001
   2.30000000E+002   9.85844160E-001   7.42809969E-001   9.85842551E-001
   2.35000000E+002   9.86682449E-001   7.42810669E-001   9.86681004E-001
   2.40000000E+002   9.87440641E-001   7.42811286E-001   9.87439341E-001
   2.45000000E+002   9.88157315E-001   7.42811830E-001   9.88156143E-001
