# ./jetvheto -in n3lo-fixed-order/H125-LHC13-R04-heft-xmur050-xmuf050-log.fxd -xQ 0.50 -out benchmarks-n3lo-smallR/H125-LHC13-R04-heft-xmur050-xmuf050-xQ050-NNLO+NNLLa.res -scheme a -order 2 -ptmax 500.01 -fixed_order 2
# process = H    
# collider = pp   
# rts =  13000.000
# M   =    125.000
# muR =     62.500
# muF =     62.500
# Q   =     62.500
# p   =      5.000
# include_c1_squared =   F
# loop_mass  = none
# alphas(MZ) =    0.11800
# alphas(M) =    0.11264
# alphas(muR) =    0.12516
# Rjet =      0.400
# order = NNLL
# pdf name and set = PDF4LHC15_nnlo_mc.LHgrid,    0
# matching scheme = a
# total cross sections [nb] at LO, NLOdiff, NNLOdiff, N3LOdiff =     0.015055    0.019611    0.008998    0.001413
#----------------------------------------------------------------------
# the lines that follow give the jet-veto efficiencies as a function of pt
#         pt            matched eff      resummed eff     fixed-order eff
   2.00000000E+001   4.66867096E-001   4.93920394E-001   4.60803594E-001
   2.50000000E+001   5.54454454E-001   5.72857888E-001   5.46887027E-001
   3.00000000E+001   6.23341306E-001   6.28690355E-001   6.14137214E-001
   3.50000000E+001   6.77826775E-001   6.67694808E-001   6.67697748E-001
   4.00000000E+001   7.21590601E-001   6.94447215E-001   7.11386119E-001
   4.50000000E+001   7.57146131E-001   7.12322365E-001   7.47572136E-001
   5.00000000E+001   7.86428844E-001   7.23895588E-001   7.77943884E-001
   5.50000000E+001   8.10865153E-001   7.31149275E-001   8.03669340E-001
   6.00000000E+001   8.31473438E-001   7.35569934E-001   8.25569926E-001
   6.50000000E+001   8.49199186E-001   7.38211621E-001   8.44466421E-001
   7.00000000E+001   8.64643547E-001   7.39777662E-001   8.60904291E-001
   7.50000000E+001   8.78039977E-001   7.40709829E-001   8.75107581E-001
   8.00000000E+001   8.89877753E-001   7.41272742E-001   8.87583197E-001
   8.50000000E+001   9.00373718E-001   7.41620108E-001   8.98575401E-001
   9.00000000E+001   9.09709467E-001   7.41840255E-001   9.08294278E-001
   9.50000000E+001   9.17951954E-001   7.41983828E-001   9.16831850E-001
   1.00000000E+002   9.25328593E-001   7.42080173E-001   9.24436265E-001
   1.05000000E+002   9.31880823E-001   7.42146612E-001   9.31164894E-001
   1.10000000E+002   9.37786795E-001   7.42193596E-001   9.37208272E-001
   1.15000000E+002   9.43066253E-001   7.42227591E-001   9.42595447E-001
   1.20000000E+002   9.47837149E-001   7.42252696E-001   9.47451332E-001
   1.25000000E+002   9.52144967E-001   7.42271575E-001   9.51826691E-001
   1.30000000E+002   9.56004230E-001   7.42286003E-001   9.55739978E-001
   1.35000000E+002   9.59520885E-001   7.42297188E-001   9.59300155E-001
   1.40000000E+002   9.62710603E-001   7.42305969E-001   9.62525156E-001
   1.45000000E+002   9.65572995E-001   7.42312942E-001   9.65416341E-001
   1.50000000E+002   9.68206475E-001   7.42318535E-001   9.68073453E-001
   1.55000000E+002   9.70583074E-001   7.42323064E-001   9.70469565E-001
   1.60000000E+002   9.72770269E-001   7.42326760E-001   9.72672954E-001
   1.65000000E+002   9.74743413E-001   7.42329800E-001   9.74659615E-001
   1.70000000E+002   9.76570656E-001   7.42332319E-001   9.76498194E-001
   1.75000000E+002   9.78255908E-001   7.42334418E-001   9.78193000E-001
   1.80000000E+002   9.79778540E-001   7.42336178E-001   9.79723719E-001
   1.85000000E+002   9.81184205E-001   7.42337661E-001   9.81136260E-001
   1.90000000E+002   9.82480964E-001   7.42338919E-001   9.82438890E-001
   1.95000000E+002   9.83662634E-001   7.42339989E-001   9.83625593E-001
   2.00000000E+002   9.84753404E-001   7.42340905E-001   9.84720691E-001
   2.05000000E+002   9.85772327E-001   7.42341691E-001   9.85743353E-001
   2.10000000E+002   9.86698453E-001   7.42342369E-001   9.86672717E-001
   2.15000000E+002   9.87567962E-001   7.42342955E-001   9.87545040E-001
   2.20000000E+002   9.88373165E-001   7.42343465E-001   9.88352698E-001
   2.25000000E+002   9.89095161E-001   7.42343909E-001   9.89076840E-001
   2.30000000E+002   9.89808056E-001   7.42344297E-001   9.89791617E-001
   2.35000000E+002   9.90436621E-001   7.42344637E-001   9.90421838E-001
   2.40000000E+002   9.91032331E-001   7.42344937E-001   9.91019008E-001
   2.45000000E+002   9.91586139E-001   7.42345201E-001   9.91574107E-001
