# ./jetvheto -in n3lo-fixed-order/H125-LHC13-R04-mb-0-mt-1725-xmur100-xmuf050-log.fxd -xQ 0.5 -out benchmarks-n3lo-smallR/H125-LHC13-R04-mb-0-mt-1725-xmur100-xmuf050-xQ050-NNLO+NNLLa.res -scheme a -order 2 -ptmax 500.01 -fixed_order 2 -loop-mass t
# process = H    
# collider = pp   
# rts =  13000.000
# M   =    125.000
# muR =    125.000
# muF =     62.500
# Q   =     62.500
# p   =      5.000
# include_c1_squared =   F
# loop_mass  = t   
# alphas(MZ) =    0.11800
# alphas(M) =    0.11264
# alphas(muR) =    0.11264
# Rjet =      0.400
# order = NNLL
# pdf name and set = PDF4LHC15_nnlo_mc.LHgrid,    0
# matching scheme = a
# total cross sections [nb] at LO, NLOdiff, NNLOdiff, N3LOdiff =     0.012997    0.017347    0.010424    0.004163
#----------------------------------------------------------------------
# the lines that follow give the jet-veto efficiencies as a function of pt
#         pt            matched eff      resummed eff     fixed-order eff
   2.00000000E+001   4.73342120E-001   5.04961392E-001   5.05383673E-001
   2.50000000E+001   5.64389214E-001   5.90672256E-001   5.86599989E-001
   3.00000000E+001   6.35512442E-001   6.52256525E-001   6.49001744E-001
   3.50000000E+001   6.91653880E-001   6.95963221E-001   6.98540679E-001
   4.00000000E+001   7.36265748E-001   7.26461623E-001   7.38658449E-001
   4.50000000E+001   7.72059295E-001   7.47252260E-001   7.71720875E-001
   5.00000000E+001   8.01367816E-001   7.61043018E-001   7.99609682E-001
   5.50000000E+001   8.25165106E-001   7.69946872E-001   8.22862779E-001
   6.00000000E+001   8.45177734E-001   7.75572758E-001   8.42840818E-001
   6.50000000E+001   8.62199337E-001   7.79082729E-001   8.60082325E-001
   7.00000000E+001   8.76813755E-001   7.81269576E-001   8.75010333E-001
   7.50000000E+001   8.89432752E-001   7.82644854E-001   8.87947964E-001
   8.00000000E+001   9.00523122E-001   7.83525050E-001   8.99323286E-001
   8.50000000E+001   9.10325799E-001   7.84101122E-001   9.09364851E-001
   9.00000000E+001   9.18992176E-001   7.84487620E-001   9.18224745E-001
   9.50000000E+001   9.26630264E-001   7.84753446E-001   9.26016654E-001
   1.00000000E+002   9.33522885E-001   7.84940622E-001   9.33030521E-001
   1.05000000E+002   9.39583511E-001   7.85075293E-001   9.39186536E-001
   1.10000000E+002   9.45020909E-001   7.85174092E-001   9.44699045E-001
   1.15000000E+002   9.49925015E-001   7.85247849E-001   9.49662445E-001
   1.20000000E+002   9.54354029E-001   7.85303773E-001   9.54138501E-001
   1.25000000E+002   9.58390810E-001   7.85346768E-001   9.58212797E-001
   1.30000000E+002   9.61972964E-001   7.85380235E-001   9.61825060E-001
   1.35000000E+002   9.65210493E-001   7.85406580E-001   9.65086900E-001
   1.40000000E+002   9.68176743E-001   7.85427528E-001   9.68072879E-001
   1.45000000E+002   9.70887651E-001   7.85444340E-001   9.70799893E-001
   1.50000000E+002   9.73371516E-001   7.85457944E-001   9.73296991E-001
   1.55000000E+002   9.75611455E-001   7.85469040E-001   9.75547861E-001
   1.60000000E+002   9.77653531E-001   7.85478152E-001   9.77599016E-001
   1.65000000E+002   9.79506713E-001   7.85485687E-001   9.79459776E-001
   1.70000000E+002   9.81212266E-001   7.85491954E-001   9.81171685E-001
   1.75000000E+002   9.82759517E-001   7.85497198E-001   9.82724296E-001
   1.80000000E+002   9.84164177E-001   7.85501608E-001   9.84133490E-001
   1.85000000E+002   9.85467301E-001   7.85505336E-001   9.85440470E-001
   1.90000000E+002   9.86659318E-001   7.85508502E-001   9.86635778E-001
   1.95000000E+002   9.87752848E-001   7.85511203E-001   9.87732128E-001
   2.00000000E+002   9.88756490E-001   7.85513516E-001   9.88738196E-001
   2.05000000E+002   9.89675730E-001   7.85515506E-001   9.89659531E-001
   2.10000000E+002   9.90505685E-001   7.85517224E-001   9.90491300E-001
   2.15000000E+002   9.91288992E-001   7.85518712E-001   9.91276183E-001
   2.20000000E+002   9.92006267E-001   7.85520006E-001   9.91994832E-001
   2.25000000E+002   9.92651848E-001   7.85521134E-001   9.92641615E-001
   2.30000000E+002   9.93276258E-001   7.85522121E-001   9.93267078E-001
   2.35000000E+002   9.93821322E-001   7.85522988E-001   9.93813070E-001
   2.40000000E+002   9.94337246E-001   7.85523750E-001   9.94329809E-001
   2.45000000E+002   9.94809505E-001   7.85524422E-001   9.94802790E-001
