# ./jetvheto -in n3lo-fixed-order/H125-LHC13-R04-mb-475-mt-1725-xmur100-xmuf100-log.fxd -xQ 0.125 -out benchmarks-n3lo-smallR/H125-LHC13-R04-mb-475-mt-1725-xmur100-xmuf100-xQ125-NNLO+NNLLa.R0-0.5.res -scheme a -order 2 -ptmax 500.01 -fixed_order 2 -small-r -loop-mass t+b -R0 0.5
# process = H    
# collider = pp   
# rts =  13000.000
# M   =    125.000
# muR =    125.000
# muF =    125.000
# Q   =     15.625
# p   =      5.000
# include_c1_squared =   F
# loop_mass  = t+b 
# alphas(MZ) =    0.11800
# alphas(M) =    0.11264
# alphas(muR) =    0.11264
# Rjet =      0.400
# order = NNLL
# pdf name and set = PDF4LHC15_nnlo_mc.LHgrid,    0
# matching scheme = a
# total cross sections [nb] at LO, NLOdiff, NNLOdiff, N3LOdiff =     0.012292    0.016994    0.010146    0.003834
#----------------------------------------------------------------------
# the lines that follow give the jet-veto efficiencies as a function of pt
#         pt            matched eff      resummed eff     fixed-order eff
   2.00000000E+001   4.90644782E-001   4.98946468E-001   4.93150502E-001
   2.50000000E+001   5.73580126E-001   5.14145597E-001   5.75024850E-001
   3.00000000E+001   6.37512302E-001   5.19089322E-001   6.38301171E-001
   3.50000000E+001   6.88358042E-001   5.20940672E-001   6.88801162E-001
   4.00000000E+001   7.29540650E-001   5.21728207E-001   7.29800784E-001
   4.50000000E+001   7.63554582E-001   5.22099594E-001   7.63713984E-001
   5.00000000E+001   7.92053985E-001   5.22289792E-001   7.92155543E-001
   5.50000000E+001   8.16101200E-001   5.22393920E-001   8.16168137E-001
   6.00000000E+001   8.36752169E-001   5.22454142E-001   8.36797648E-001
   6.50000000E+001   8.54552378E-001   5.22490602E-001   8.54584097E-001
   7.00000000E+001   8.69942971E-001   5.22513549E-001   8.69965602E-001
   7.50000000E+001   8.83338085E-001   5.22528479E-001   8.83354565E-001
   8.00000000E+001   8.95138186E-001   5.22538476E-001   8.95150407E-001
   8.50000000E+001   9.05437292E-001   5.22545341E-001   9.05446499E-001
   9.00000000E+001   9.14623848E-001   5.22550161E-001   9.14630889E-001
   9.50000000E+001   9.22703334E-001   5.22553612E-001   9.22708788E-001
   1.00000000E+002   9.29888953E-001   5.22556127E-001   9.29893229E-001
   1.05000000E+002   9.36327671E-001   5.22557990E-001   9.36331059E-001
   1.10000000E+002   9.42005694E-001   5.22559389E-001   9.42008406E-001
   1.15000000E+002   9.47153758E-001   5.22560453E-001   9.47155949E-001
   1.20000000E+002   9.51707940E-001   5.22561273E-001   9.51709725E-001
   1.25000000E+002   9.55876170E-001   5.22561912E-001   9.55877636E-001
   1.30000000E+002   9.59619529E-001   5.22562414E-001   9.59620741E-001
   1.35000000E+002   9.63020753E-001   5.22562812E-001   9.63021762E-001
   1.40000000E+002   9.66067854E-001   5.22563131E-001   9.66068699E-001
   1.45000000E+002   9.68886156E-001   5.22563389E-001   9.68886869E-001
   1.50000000E+002   9.71398592E-001   5.22563598E-001   9.71399196E-001
   1.55000000E+002   9.73721436E-001   5.22563770E-001   9.73721950E-001
   1.60000000E+002   9.75822166E-001   5.22563911E-001   9.75822606E-001
   1.65000000E+002   9.77740850E-001   5.22564028E-001   9.77741229E-001
   1.70000000E+002   9.79500697E-001   5.22564125E-001   9.79501024E-001
   1.75000000E+002   9.81089604E-001   5.22564207E-001   9.81089888E-001
   1.80000000E+002   9.82552045E-001   5.22564276E-001   9.82552292E-001
   1.85000000E+002   9.83887328E-001   5.22564334E-001   9.83887543E-001
   1.90000000E+002   9.85116298E-001   5.22564384E-001   9.85116487E-001
   1.95000000E+002   9.86263067E-001   5.22564426E-001   9.86263234E-001
   2.00000000E+002   9.87300787E-001   5.22564462E-001   9.87300933E-001
   2.05000000E+002   9.88264928E-001   5.22564494E-001   9.88265058E-001
   2.10000000E+002   9.89144475E-001   5.22564521E-001   9.89144590E-001
   2.15000000E+002   9.89936985E-001   5.22564544E-001   9.89937088E-001
   2.20000000E+002   9.90684824E-001   5.22564564E-001   9.90684915E-001
   2.25000000E+002   9.91368682E-001   5.22564582E-001   9.91368764E-001
   2.30000000E+002   9.91999227E-001   5.22564598E-001   9.91999301E-001
   2.35000000E+002   9.92589080E-001   5.22564611E-001   9.92589146E-001
   2.40000000E+002   9.93118725E-001   5.22564623E-001   9.93118784E-001
   2.45000000E+002   9.93620993E-001   5.22564634E-001   9.93621047E-001
