# ./jetvheto -in n3lo-fixed-order/H125-LHC13-R04-mb-0-mt-1725-xmur025-xmuf050-log.fxd -xQ 0.25 -out benchmarks-n3lo-smallR/H125-LHC13-R04-mb-0-mt-1725-xmur025-xmuf050-xQ025-N3LO+NNLLa.res -scheme a -order 2 -ptmax 500.01 -fixed_order 3 -loop-mass t
# process = H    
# collider = pp   
# rts =  13000.000
# M   =    125.000
# muR =     31.250
# muF =     62.500
# Q   =     31.250
# p   =      5.000
# include_c1_squared =   F
# loop_mass  = t   
# alphas(MZ) =    0.11800
# alphas(M) =    0.11264
# alphas(muR) =    0.14091
# Rjet =      0.400
# order = NNLL
# pdf name and set = PDF4LHC15_nnlo_mc.LHgrid,    0
# matching scheme = a
# total cross sections [nb] at LO, NLOdiff, NNLOdiff, N3LOdiff =     0.019855    0.024744    0.005009   -0.002663
#----------------------------------------------------------------------
# the lines that follow give the jet-veto efficiencies as a function of pt
#         pt            matched eff      resummed eff     fixed-order eff
   2.00000000E+001   4.63417671E-001   4.47958926E-001   4.64441433E-001
   2.50000000E+001   5.47994706E-001   5.10726945E-001   5.46982713E-001
   3.00000000E+001   6.22487862E-001   5.47789674E-001   6.21747969E-001
   3.50000000E+001   6.81245756E-001   5.68018982E-001   6.80660873E-001
   4.00000000E+001   7.25195916E-001   5.78665036E-001   7.24684346E-001
   4.50000000E+001   7.65039796E-001   5.84297222E-001   7.64688533E-001
   5.00000000E+001   7.96101432E-001   5.87367010E-001   7.95840800E-001
   5.50000000E+001   8.23358006E-001   5.89106951E-001   8.23173148E-001
   6.00000000E+001   8.45189477E-001   5.90133596E-001   8.45052906E-001
   6.50000000E+001   8.66415292E-001   5.90762682E-001   8.66318719E-001
   7.00000000E+001   8.81404079E-001   5.91161576E-001   8.81329841E-001
   7.50000000E+001   8.95175835E-001   5.91422354E-001   8.95119563E-001
   8.00000000E+001   9.07857246E-001   5.91597530E-001   9.07814578E-001
   8.50000000E+001   9.19164881E-001   5.91718079E-001   9.19132236E-001
   9.00000000E+001   9.29140235E-001   5.91802843E-001   9.29114976E-001
   9.50000000E+001   9.36544747E-001   5.91863603E-001   9.36524636E-001
   1.00000000E+002   9.43979404E-001   5.91907920E-001   9.43963449E-001
   1.05000000E+002   9.49391173E-001   5.91940754E-001   9.49378223E-001
   1.10000000E+002   9.54488794E-001   5.91965428E-001   9.54478252E-001
   1.15000000E+002   9.59547702E-001   5.91984211E-001   9.59539125E-001
   1.20000000E+002   9.64112640E-001   5.91998681E-001   9.64105612E-001
   1.25000000E+002   9.67630165E-001   5.92009948E-001   9.67624322E-001
   1.30000000E+002   9.70600249E-001   5.92018811E-001   9.70595359E-001
   1.35000000E+002   9.73821730E-001   5.92025846E-001   9.73817644E-001
   1.40000000E+002   9.76761670E-001   5.92031479E-001   9.76758237E-001
   1.45000000E+002   9.79227964E-001   5.92036025E-001   9.79225058E-001
   1.50000000E+002   9.80842735E-001   5.92039721E-001   9.80840244E-001
   1.55000000E+002   9.83175743E-001   5.92042747E-001   9.83173622E-001
   1.60000000E+002   9.85242184E-001   5.92045240E-001   9.85240369E-001
   1.65000000E+002   9.86020055E-001   5.92047306E-001   9.86018475E-001
   1.70000000E+002   9.87597463E-001   5.92049029E-001   9.87596097E-001
   1.75000000E+002   9.89071750E-001   5.92050473E-001   9.89070565E-001
   1.80000000E+002   9.90031201E-001   5.92051690E-001   9.90030165E-001
   1.85000000E+002   9.90904953E-001   5.92052719E-001   9.90904044E-001
   1.90000000E+002   9.91918958E-001   5.92053595E-001   9.91918160E-001
   1.95000000E+002   9.92869449E-001   5.92054342E-001   9.92868747E-001
   2.00000000E+002   9.93682886E-001   5.92054983E-001   9.93682266E-001
   2.05000000E+002   9.94218558E-001   5.92055535E-001   9.94218008E-001
   2.10000000E+002   9.94841200E-001   5.92056011E-001   9.94840712E-001
   2.15000000E+002   9.95209549E-001   5.92056424E-001   9.95209113E-001
   2.20000000E+002   9.96061481E-001   5.92056784E-001   9.96061092E-001
   2.25000000E+002   9.96292849E-001   5.92057097E-001   9.96292501E-001
   2.30000000E+002   9.96700120E-001   5.92057371E-001   9.96699807E-001
   2.35000000E+002   9.96933517E-001   5.92057612E-001   9.96933235E-001
   2.40000000E+002   9.97251159E-001   5.92057824E-001   9.97250905E-001
   2.45000000E+002   9.97727728E-001   5.92058011E-001   9.97727498E-001
