# ./jetvheto -in n3lo-fixed-order/H125-LHC13-R04-mb-0-mt-1725-xmur025-xmuf025-log.fxd -xQ 0.25 -out benchmarks-n3lo-smallR/H125-LHC13-R04-mb-0-mt-1725-xmur025-xmuf025-xQ025-NNLO+NNLLb.R0-1.5.res -scheme b -order 2 -ptmax 500.01 -small-r -fixed_order 2 -loop-mass t -R0 1.5
# process = H    
# collider = pp   
# rts =  13000.000
# M   =    125.000
# muR =     31.250
# muF =     31.250
# Q   =     31.250
# p   =      5.000
# include_c1_squared =   F
# loop_mass  = t   
# alphas(MZ) =    0.11800
# alphas(M) =    0.11264
# alphas(muR) =    0.14091
# Rjet =      0.400
# order = NNLL
# pdf name and set = PDF4LHC15_nnlo_mc.LHgrid,    0
# matching scheme = b
# total cross sections [nb] at LO, NLOdiff, NNLOdiff, N3LOdiff =     0.018140    0.025356    0.006043   -0.002471
#----------------------------------------------------------------------
# the lines that follow give the jet-veto efficiencies as a function of pt
#         pt            matched eff      resummed eff     fixed-order eff
   2.00000000E+001   3.96446525E-001   4.47173609E-001   3.51600386E-001
   2.50000000E+001   4.79327771E-001   5.09411491E-001   4.53985492E-001
   3.00000000E+001   5.49191333E-001   5.46383329E-001   5.35336815E-001
   3.50000000E+001   6.08984573E-001   5.66648444E-001   6.01450914E-001
   4.00000000E+001   6.59893717E-001   5.77341744E-001   6.55707630E-001
   4.50000000E+001   7.03217585E-001   5.83008134E-001   7.00809251E-001
   5.00000000E+001   7.40196347E-001   5.86099426E-001   7.38750758E-001
   5.50000000E+001   7.71762186E-001   5.87852486E-001   7.70859819E-001
   6.00000000E+001   7.98938928E-001   5.88887195E-001   7.98354652E-001
   6.50000000E+001   8.22436005E-001   5.89521343E-001   8.22044881E-001
   7.00000000E+001   8.42867160E-001   5.89923495E-001   8.42597642E-001
   7.50000000E+001   8.60439191E-001   5.90186423E-001   8.60248412E-001
   8.00000000E+001   8.76018819E-001   5.90363052E-001   8.75880788E-001
   8.50000000E+001   8.89601503E-001   5.90484605E-001   8.89499593E-001
   9.00000000E+001   9.01604661E-001   5.90570076E-001   9.01528041E-001
   9.50000000E+001   9.12071282E-001   5.90631346E-001   9.12012715E-001
   1.00000000E+002   9.21423251E-001   5.90676035E-001   9.21377846E-001
   1.05000000E+002   9.29759807E-001   5.90709144E-001   9.29724151E-001
   1.10000000E+002   9.37125225E-001   5.90734025E-001   9.37096897E-001
   1.15000000E+002   9.43770667E-001   5.90752966E-001   9.43747922E-001
   1.20000000E+002   9.49686924E-001   5.90767557E-001   9.49668478E-001
   1.25000000E+002   9.54882894E-001   5.90778920E-001   9.54867796E-001
   1.30000000E+002   9.59615574E-001   5.90787857E-001   9.59603121E-001
   1.35000000E+002   9.63862201E-001   5.90794951E-001   9.63851855E-001
   1.40000000E+002   9.67680175E-001   5.90800632E-001   9.67671517E-001
   1.45000000E+002   9.71169804E-001   5.90805216E-001   9.71162513E-001
   1.50000000E+002   9.74262251E-001   5.90808943E-001   9.74256073E-001
   1.55000000E+002   9.77057710E-001   5.90811994E-001   9.77052447E-001
   1.60000000E+002   9.79612045E-001   5.90814508E-001   9.79607538E-001
   1.65000000E+002   9.81927568E-001   5.90816592E-001   9.81923690E-001
   1.70000000E+002   9.83980936E-001   5.90818329E-001   9.83977585E-001
   1.75000000E+002   9.85858764E-001   5.90819786E-001   9.85855855E-001
   1.80000000E+002   9.87560685E-001   5.90821012E-001   9.87558150E-001
   1.85000000E+002   9.89079815E-001   5.90822051E-001   9.89077597E-001
   1.90000000E+002   9.90489079E-001   5.90822934E-001   9.90487132E-001
   1.95000000E+002   9.91782051E-001   5.90823687E-001   9.91780336E-001
   2.00000000E+002   9.92924552E-001   5.90824334E-001   9.92923037E-001
   2.05000000E+002   9.93989660E-001   5.90824890E-001   9.93988317E-001
   2.10000000E+002   9.94967981E-001   5.90825370E-001   9.94966787E-001
   2.15000000E+002   9.95796794E-001   5.90825787E-001   9.95795730E-001
   2.20000000E+002   9.96586497E-001   5.90826149E-001   9.96585546E-001
   2.25000000E+002   9.97314212E-001   5.90826465E-001   9.97313360E-001
   2.30000000E+002   9.97944528E-001   5.90826742E-001   9.97943763E-001
   2.35000000E+002   9.98517923E-001   5.90826985E-001   9.98517235E-001
   2.40000000E+002   9.99026940E-001   5.90827198E-001   9.99026319E-001
   2.45000000E+002   9.99503512E-001   5.90827387E-001   9.99502951E-001
