# ./jetvheto -in n3lo-fixed-order/H125-LHC13-R04-mb-0-mt-1725-xmur100-xmuf100-log.fxd -xQ 0.125 -out benchmarks-n3lo-smallR/H125-LHC13-R04-mb-0-mt-1725-xmur100-xmuf100-xQ0125-N3LO+NNLLa.R0-2.0.res -scheme a -order 2 -ptmax 500.01 -small-r -fixed_order 3 -loop-mass t -R0 2.0
# process = H    
# collider = pp   
# rts =  13000.000
# M   =    125.000
# muR =    125.000
# muF =    125.000
# Q   =     15.625
# p   =      5.000
# include_c1_squared =   F
# loop_mass  = t   
# alphas(MZ) =    0.11800
# alphas(M) =    0.11264
# alphas(muR) =    0.11264
# Rjet =      0.400
# order = NNLL
# pdf name and set = PDF4LHC15_nnlo_mc.LHgrid,    0
# matching scheme = a
# total cross sections [nb] at LO, NLOdiff, NNLOdiff, N3LOdiff =     0.013801    0.017514    0.010146    0.003834
#----------------------------------------------------------------------
# the lines that follow give the jet-veto efficiencies as a function of pt
#         pt            matched eff      resummed eff     fixed-order eff
   2.00000000E+001   4.70263476E-001   5.19093223E-001   4.70549319E-001
   2.50000000E+001   5.54802400E-001   5.34788348E-001   5.55098689E-001
   3.00000000E+001   6.25411373E-001   5.39893745E-001   6.25631507E-001
   3.50000000E+001   6.80078685E-001   5.41805686E-001   6.80214785E-001
   4.00000000E+001   7.24243048E-001   5.42619002E-001   7.24327023E-001
   4.50000000E+001   7.60056728E-001   5.43002549E-001   7.60109480E-001
   5.00000000E+001   7.90375773E-001   5.43198975E-001   7.90410150E-001
   5.50000000E+001   8.16241552E-001   5.43306513E-001   8.16264683E-001
   6.00000000E+001   8.38019780E-001   5.43368707E-001   8.38035676E-001
   6.50000000E+001   8.57415487E-001   5.43406361E-001   8.57426760E-001
   7.00000000E+001   8.73736844E-001   5.43430059E-001   8.73744963E-001
   7.50000000E+001   8.87336416E-001   5.43445478E-001   8.87342330E-001
   8.00000000E+001   8.99275794E-001   5.43455802E-001   8.99280183E-001
   8.50000000E+001   9.10042738E-001   5.43462892E-001   9.10046058E-001
   9.00000000E+001   9.19214773E-001   5.43467870E-001   9.19217312E-001
   9.50000000E+001   9.27601746E-001   5.43471434E-001   9.27603719E-001
   1.00000000E+002   9.34622927E-001   5.43474031E-001   9.34624471E-001
   1.05000000E+002   9.40916439E-001   5.43475955E-001   9.40917661E-001
   1.10000000E+002   9.46568162E-001   5.43477400E-001   9.46569141E-001
   1.15000000E+002   9.51647201E-001   5.43478499E-001   9.51647991E-001
   1.20000000E+002   9.56059164E-001   5.43479346E-001   9.56059806E-001
   1.25000000E+002   9.59882788E-001   5.43480006E-001   9.59883314E-001
   1.30000000E+002   9.63711259E-001   5.43480524E-001   9.63711695E-001
   1.35000000E+002   9.67054355E-001   5.43480936E-001   9.67054718E-001
   1.40000000E+002   9.69876982E-001   5.43481265E-001   9.69877285E-001
   1.45000000E+002   9.72570850E-001   5.43481531E-001   9.72571106E-001
   1.50000000E+002   9.74852517E-001   5.43481747E-001   9.74852733E-001
   1.55000000E+002   9.77310256E-001   5.43481924E-001   9.77310440E-001
   1.60000000E+002   9.78984160E-001   5.43482070E-001   9.78984317E-001
   1.65000000E+002   9.80775493E-001   5.43482191E-001   9.80775628E-001
   1.70000000E+002   9.82342194E-001   5.43482292E-001   9.82342311E-001
   1.75000000E+002   9.83862649E-001   5.43482376E-001   9.83862750E-001
   1.80000000E+002   9.85258199E-001   5.43482447E-001   9.85258287E-001
   1.85000000E+002   9.86511637E-001   5.43482507E-001   9.86511714E-001
   1.90000000E+002   9.87391257E-001   5.43482558E-001   9.87391325E-001
   1.95000000E+002   9.88518103E-001   5.43482602E-001   9.88518162E-001
   2.00000000E+002   9.89474305E-001   5.43482640E-001   9.89474357E-001
   2.05000000E+002   9.90297093E-001   5.43482672E-001   9.90297139E-001
   2.10000000E+002   9.91033185E-001   5.43482700E-001   9.91033226E-001
   2.15000000E+002   9.91849329E-001   5.43482724E-001   9.91849366E-001
   2.20000000E+002   9.92440736E-001   5.43482745E-001   9.92440768E-001
   2.25000000E+002   9.93063647E-001   5.43482763E-001   9.93063675E-001
   2.30000000E+002   9.93644256E-001   5.43482779E-001   9.93644282E-001
   2.35000000E+002   9.94181485E-001   5.43482793E-001   9.94181508E-001
   2.40000000E+002   9.94546042E-001   5.43482806E-001   9.94546063E-001
   2.45000000E+002   9.95034506E-001   5.43482817E-001   9.95034525E-001
