# ./jetvheto -in n3lo-fixed-order/H125-LHC13-R04-mb-0-mt-1725-xmur050-xmuf050-log.fxd -xQ 1.0 -out benchmarks-n3lo-smallR/H125-LHC13-R04-mb-0-mt-1725-xmur050-xmuf050-xQ100-NNLO+NNLLb.res -scheme b -order 2 -ptmax 500.01 -fixed_order 2 -loop-mass t
# process = H    
# collider = pp   
# rts =  13000.000
# M   =    125.000
# muR =     62.500
# muF =     62.500
# Q   =    125.000
# p   =      5.000
# include_c1_squared =   F
# loop_mass  = t   
# alphas(MZ) =    0.11800
# alphas(M) =    0.11264
# alphas(muR) =    0.12516
# Rjet =      0.400
# order = NNLL
# pdf name and set = PDF4LHC15_nnlo_mc.LHgrid,    0
# matching scheme = b
# total cross sections [nb] at LO, NLOdiff, NNLOdiff, N3LOdiff =     0.015885    0.020561    0.008998    0.001413
#----------------------------------------------------------------------
# the lines that follow give the jet-veto efficiencies as a function of pt
#         pt            matched eff      resummed eff     fixed-order eff
   2.00000000E+001   4.78644489E-001   5.95466324E-001   3.37968833E-001
   2.50000000E+001   5.61840515E-001   6.80488616E-001   4.45490403E-001
   3.00000000E+001   6.27701985E-001   7.39178161E-001   5.29094091E-001
   3.50000000E+001   6.80855025E-001   7.79289588E-001   5.95850260E-001
   4.00000000E+001   7.24245218E-001   8.06190703E-001   6.50115846E-001
   4.50000000E+001   7.60090627E-001   8.23536914E-001   6.94939270E-001
   5.00000000E+001   7.90362078E-001   8.33887441E-001   7.32769177E-001
   5.50000000E+001   8.15390567E-001   8.39084558E-001   7.64361916E-001
   6.00000000E+001   8.36773810E-001   8.40471084E-001   7.91465371E-001
   6.50000000E+001   8.55100004E-001   8.39053410E-001   8.14838120E-001
   7.00000000E+001   8.70855863E-001   8.35603257E-001   8.35078651E-001
   7.50000000E+001   8.84323833E-001   8.30715335E-001   8.52570605E-001
   8.00000000E+001   8.96086340E-001   8.24858702E-001   8.67937405E-001
   8.50000000E+001   9.06388458E-001   8.18409962E-001   8.81478135E-001
   9.00000000E+001   9.15408904E-001   8.11672269E-001   8.93411828E-001
   9.50000000E+001   9.23238091E-001   8.04887156E-001   9.03868009E-001
   1.00000000E+002   9.30288450E-001   7.98245218E-001   9.13265993E-001
   1.05000000E+002   9.36406835E-001   7.91890570E-001   9.21489390E-001
   1.10000000E+002   9.41895083E-001   7.85926025E-001   9.28847842E-001
   1.15000000E+002   9.46842995E-001   7.80418625E-001   9.35451292E-001
   1.20000000E+002   9.51326424E-001   7.75403308E-001   9.41393487E-001
   1.25000000E+002   9.55444032E-001   7.70889684E-001   9.46790455E-001
   1.30000000E+002   9.59088203E-001   7.66867839E-001   9.51556334E-001
   1.35000000E+002   9.62417398E-001   7.63313624E-001   9.55862035E-001
   1.40000000E+002   9.65495889E-001   7.60193559E-001   9.59788706E-001
   1.45000000E+002   9.68328576E-001   7.57468948E-001   9.63356960E-001
   1.50000000E+002   9.70959386E-001   7.55099109E-001   9.66623739E-001
   1.55000000E+002   9.73344811E-001   7.53043724E-001   9.69559478E-001
   1.60000000E+002   9.75537944E-001   7.51264431E-001   9.72228153E-001
   1.65000000E+002   9.77537795E-001   7.49725735E-001   9.74639208E-001
   1.70000000E+002   9.79400461E-001   7.48395598E-001   9.76857081E-001
   1.75000000E+002   9.81105791E-001   7.47245547E-001   9.78869658E-001
   1.80000000E+002   9.82652197E-001   7.46250531E-001   9.80682463E-001
   1.85000000E+002   9.84100606E-001   7.45388748E-001   9.82361728E-001
   1.90000000E+002   9.85435240E-001   7.44641350E-001   9.83896830E-001
   1.95000000E+002   9.86660894E-001   7.43992128E-001   9.85296972E-001
   2.00000000E+002   9.87790192E-001   7.43427192E-001   9.86578358E-001
   2.05000000E+002   9.88831726E-001   7.42934666E-001   9.87752669E-001
   2.10000000E+002   9.89767211E-001   7.42504415E-001   9.88804449E-001
   2.15000000E+002   9.90660840E-001   7.42127790E-001   9.89799927E-001
   2.20000000E+002   9.91480856E-001   7.41797416E-001   9.90709441E-001
   2.25000000E+002   9.92209561E-001   7.41506999E-001   9.91517046E-001
   2.30000000E+002   9.92933573E-001   7.41251163E-001   9.92310501E-001
   2.35000000E+002   9.93554448E-001   7.41025314E-001   9.92992886E-001
   2.40000000E+002   9.94145307E-001   7.40825518E-001   9.93638203E-001
   2.45000000E+002   9.94687134E-001   7.40648405E-001   9.94228366E-001
