# ./jetvheto -in n3lo-fixed-order/H125-LHC13-R04-mb-475-mt-1725-xmur100-xmuf100-log.fxd -xQ 0.125 -out benchmarks-n3lo-smallR/H125-LHC13-R04-mb-475-mt-1725-xmur100-xmuf100-xQ125-NNLO+NNLLb.R0-1.0.res -scheme b -order 2 -ptmax 500.01 -fixed_order 2 -small-r -loop-mass t+b -R0 1.0
# process = H    
# collider = pp   
# rts =  13000.000
# M   =    125.000
# muR =    125.000
# muF =    125.000
# Q   =     15.625
# p   =      5.000
# include_c1_squared =   F
# loop_mass  = t+b 
# alphas(MZ) =    0.11800
# alphas(M) =    0.11264
# alphas(muR) =    0.11264
# Rjet =      0.400
# order = NNLL
# pdf name and set = PDF4LHC15_nnlo_mc.LHgrid,    0
# matching scheme = b
# total cross sections [nb] at LO, NLOdiff, NNLOdiff, N3LOdiff =     0.012292    0.016994    0.010146    0.003834
#----------------------------------------------------------------------
# the lines that follow give the jet-veto efficiencies as a function of pt
#         pt            matched eff      resummed eff     fixed-order eff
   2.00000000E+001   3.28486362E-001   4.99000591E-001   3.17550639E-001
   2.50000000E+001   4.30940067E-001   5.14164811E-001   4.27790656E-001
   3.00000000E+001   5.14030087E-001   5.19097242E-001   5.12989288E-001
   3.50000000E+001   5.81371502E-001   5.20944371E-001   5.80985186E-001
   4.00000000E+001   6.36345470E-001   5.21730111E-001   6.36189278E-001
   4.50000000E+001   6.81918885E-001   5.22100653E-001   6.81851830E-001
   5.00000000E+001   7.20176870E-001   5.22290418E-001   7.20147070E-001
   5.50000000E+001   7.52492278E-001   5.22394309E-001   7.52478916E-001
   6.00000000E+001   7.80261377E-001   5.22454394E-001   7.80255597E-001
   6.50000000E+001   8.04206447E-001   5.22490771E-001   8.04204225E-001
   7.00000000E+001   8.24915263E-001   5.22513666E-001   8.24914709E-001
   7.50000000E+001   8.42942117E-001   5.22528562E-001   8.42942328E-001
   8.00000000E+001   8.58824346E-001   5.22538536E-001   8.58824881E-001
   8.50000000E+001   8.72687454E-001   5.22545385E-001   8.72688093E-001
   9.00000000E+001   8.85053804E-001   5.22550194E-001   8.85054448E-001
   9.50000000E+001   8.95930365E-001   5.22553637E-001   8.95930965E-001
   1.00000000E+002   9.05603944E-001   5.22556147E-001   9.05604482E-001
   1.05000000E+002   9.14272248E-001   5.22558005E-001   9.14272722E-001
   1.10000000E+002   9.21916595E-001   5.22559401E-001   9.21917006E-001
   1.15000000E+002   9.28847580E-001   5.22560463E-001   9.28847935E-001
   1.20000000E+002   9.34979077E-001   5.22561281E-001   9.34979383E-001
   1.25000000E+002   9.40591019E-001   5.22561918E-001   9.40591281E-001
   1.30000000E+002   9.45630973E-001   5.22562419E-001   9.45631198E-001
   1.35000000E+002   9.50210322E-001   5.22562817E-001   9.50210516E-001
   1.40000000E+002   9.54312909E-001   5.22563135E-001   9.54313076E-001
   1.45000000E+002   9.58107465E-001   5.22563392E-001   9.58107610E-001
   1.50000000E+002   9.61490217E-001   5.22563601E-001   9.61490343E-001
   1.55000000E+002   9.64617714E-001   5.22563772E-001   9.64617823E-001
   1.60000000E+002   9.67446164E-001   5.22563913E-001   9.67446259E-001
   1.65000000E+002   9.70029513E-001   5.22564029E-001   9.70029596E-001
   1.70000000E+002   9.72399006E-001   5.22564127E-001   9.72399079E-001
   1.75000000E+002   9.74538347E-001   5.22564208E-001   9.74538410E-001
   1.80000000E+002   9.76507413E-001   5.22564277E-001   9.76507469E-001
   1.85000000E+002   9.78305275E-001   5.22564335E-001   9.78305324E-001
   1.90000000E+002   9.79959996E-001   5.22564385E-001   9.79960040E-001
   1.95000000E+002   9.81504042E-001   5.22564427E-001   9.81504081E-001
   2.00000000E+002   9.82901261E-001   5.22564463E-001   9.82901295E-001
   2.05000000E+002   9.84199414E-001   5.22564494E-001   9.84199444E-001
   2.10000000E+002   9.85383666E-001   5.22564521E-001   9.85383694E-001
   2.15000000E+002   9.86450730E-001   5.22564544E-001   9.86450755E-001
   2.20000000E+002   9.87457648E-001   5.22564565E-001   9.87457670E-001
   2.25000000E+002   9.88378421E-001   5.22564582E-001   9.88378441E-001
   2.30000000E+002   9.89227411E-001   5.22564598E-001   9.89227429E-001
   2.35000000E+002   9.90021613E-001   5.22564612E-001   9.90021629E-001
   2.40000000E+002   9.90734747E-001   5.22564624E-001   9.90734762E-001
   2.45000000E+002   9.91411022E-001   5.22564634E-001   9.91411035E-001
