# ./jetvheto -in n3lo-fixed-order/H125-LHC13-R04-heft-xmur100-xmuf200-log.fxd -xQ 0.50 -out benchmarks-n3lo-smallR/H125-LHC13-R04-heft-xmur100-xmuf200-xQ050-NNLO+NNLLb.res -scheme b -order 2 -ptmax 500.01 -fixed_order 2
# process = H    
# collider = pp   
# rts =  13000.000
# M   =    125.000
# muR =    125.000
# muF =    250.000
# Q   =     62.500
# p   =      5.000
# include_c1_squared =   F
# loop_mass  = none
# alphas(MZ) =    0.11800
# alphas(M) =    0.11264
# alphas(muR) =    0.11264
# Rjet =      0.400
# order = NNLL
# pdf name and set = PDF4LHC15_nnlo_mc.LHgrid,    0
# matching scheme = b
# total cross sections [nb] at LO, NLOdiff, NNLOdiff, N3LOdiff =     0.013467    0.016878    0.009991    0.003297
#----------------------------------------------------------------------
# the lines that follow give the jet-veto efficiencies as a function of pt
#         pt            matched eff      resummed eff     fixed-order eff
   2.00000000E+001   4.23672081E-001   5.27641152E-001   3.43340794E-001
   2.50000000E+001   5.07839673E-001   6.08966038E-001   4.52409348E-001
   3.00000000E+001   5.75813726E-001   6.66085259E-001   5.35758637E-001
   3.50000000E+001   6.31332193E-001   7.05685639E-001   6.01503733E-001
   4.00000000E+001   6.77168826E-001   7.32595646E-001   6.54564188E-001
   4.50000000E+001   7.15709399E-001   7.50375290E-001   6.98445136E-001
   5.00000000E+001   7.48055283E-001   7.61724634E-001   7.34840813E-001
   5.50000000E+001   7.75761097E-001   7.68707153E-001   7.65662557E-001
   6.00000000E+001   7.99481770E-001   7.72859019E-001   7.91779976E-001
   6.50000000E+001   8.20043687E-001   7.75262858E-001   8.14177418E-001
   7.00000000E+001   8.38104844E-001   7.76632523E-001   8.33632301E-001
   7.50000000E+001   8.53891039E-001   7.77409353E-001   8.50470066E-001
   8.00000000E+001   8.67916088E-001   7.77852494E-001   8.65285633E-001
   8.50000000E+001   8.80234805E-001   7.78108869E-001   8.78198768E-001
   9.00000000E+001   8.91260210E-001   7.78260211E-001   8.89672217E-001
   9.50000000E+001   9.01019682E-001   7.78351708E-001   8.99771148E-001
   1.00000000E+002   9.09632027E-001   7.78408494E-001   9.08642362E-001
   1.05000000E+002   9.17448297E-001   7.78444730E-001   9.16657297E-001
   1.10000000E+002   9.24447984E-001   7.78468495E-001   9.23810697E-001
   1.15000000E+002   9.30703515E-001   7.78484504E-001   9.30186115E-001
   1.20000000E+002   9.36346385E-001   7.78495565E-001   9.35923218E-001
   1.25000000E+002   9.41399017E-001   7.78503394E-001   9.41050492E-001
   1.30000000E+002   9.45966351E-001   7.78509057E-001   9.45677390E-001
   1.35000000E+002   9.50164102E-001   7.78513239E-001   9.49923010E-001
   1.40000000E+002   9.53938889E-001   7.78516384E-001   9.53736540E-001
   1.45000000E+002   9.57359132E-001   7.78518788E-001   9.57188352E-001
   1.50000000E+002   9.60474493E-001   7.78520655E-001   9.60329592E-001
   1.55000000E+002   9.63309391E-001   7.78522124E-001   9.63185830E-001
   1.60000000E+002   9.65939505E-001   7.78523294E-001   9.65833642E-001
   1.65000000E+002   9.68326663E-001   7.78524236E-001   9.68235558E-001
   1.70000000E+002   9.70504976E-001   7.78525002E-001   9.70426241E-001
   1.75000000E+002   9.72472969E-001   7.78525630E-001   9.72404651E-001
   1.80000000E+002   9.74306247E-001   7.78526150E-001   9.74246742E-001
   1.85000000E+002   9.76008697E-001   7.78526583E-001   9.75956678E-001
   1.90000000E+002   9.77559473E-001   7.78526946E-001   9.77513844E-001
   1.95000000E+002   9.78995382E-001   7.78527253E-001   9.78955226E-001
   2.00000000E+002   9.80306993E-001   7.78527513E-001   9.80271544E-001
   2.05000000E+002   9.81531103E-001   7.78527735E-001   9.81499716E-001
   2.10000000E+002   9.82667766E-001   7.78527925E-001   9.82639896E-001
   2.15000000E+002   9.83724704E-001   7.78528089E-001   9.83699890E-001
   2.20000000E+002   9.84697047E-001   7.78528230E-001   9.84674897E-001
   2.25000000E+002   9.85597562E-001   7.78528353E-001   9.85577740E-001
   2.30000000E+002   9.86447039E-001   7.78528460E-001   9.86429260E-001
   2.35000000E+002   9.87240310E-001   7.78528554E-001   9.87224325E-001
   2.40000000E+002   9.87953754E-001   7.78528636E-001   9.87939351E-001
   2.45000000E+002   9.88640197E-001   7.78528708E-001   9.88627193E-001
