# ./jetvheto -in n3lo-fixed-order/H125-LHC13-R04-heft-xmur200-xmuf100-log.fxd -xQ 0.50 -out benchmarks-n3lo-smallR/H125-LHC13-R04-heft-xmur200-xmuf100-xQ050-N3LO+NNLLb.R0-1.5.res -scheme b -order 2 -ptmax 500.01 -fixed_order 3 -small-r -R0 1.5
# process = H    
# collider = pp   
# rts =  13000.000
# M   =    125.000
# muR =    250.000
# muF =    125.000
# Q   =     62.500
# p   =      5.000
# include_c1_squared =   F
# loop_mass  = none
# alphas(MZ) =    0.11800
# alphas(M) =    0.11264
# alphas(muR) =    0.10244
# Rjet =      0.400
# order = NNLL
# pdf name and set = PDF4LHC15_nnlo_mc.LHgrid,    0
# matching scheme = b
# total cross sections [nb] at LO, NLOdiff, NNLOdiff, N3LOdiff =     0.010706    0.014429    0.010526    0.005600
#----------------------------------------------------------------------
# the lines that follow give the jet-veto efficiencies as a function of pt
#         pt            matched eff      resummed eff     fixed-order eff
   2.00000000E+001   4.35265456E-001   5.28254859E-001   4.02811325E-001
   2.50000000E+001   5.19886862E-001   6.12730332E-001   4.98234417E-001
   3.00000000E+001   5.90878809E-001   6.73080030E-001   5.75984208E-001
   3.50000000E+001   6.47396364E-001   7.15686764E-001   6.36394382E-001
   4.00000000E+001   6.93721590E-001   7.45238527E-001   6.85307948E-001
   4.50000000E+001   7.31736551E-001   7.65249107E-001   7.25186623E-001
   5.00000000E+001   7.63952353E-001   7.78418247E-001   7.58844562E-001
   5.50000000E+001   7.91459225E-001   7.86836018E-001   7.87489463E-001
   6.00000000E+001   8.14804296E-001   7.92087377E-001   8.11729972E-001
   6.50000000E+001   8.35518535E-001   7.95315022E-001   8.33150152E-001
   7.00000000E+001   8.53142353E-001   7.97292423E-001   8.51319682E-001
   7.50000000E+001   8.68048529E-001   7.98513791E-001   8.66643586E-001
   8.00000000E+001   8.81169549E-001   7.99281333E-001   8.80083273E-001
   8.50000000E+001   8.92955853E-001   7.99774909E-001   8.92112042E-001
   9.00000000E+001   9.03183131E-001   8.00100649E-001   9.02523134E-001
   9.50000000E+001   9.12456712E-001   8.00321383E-001   9.11936899E-001
   1.00000000E+002   9.20363637E-001   8.00474805E-001   9.19950993E-001
   1.05000000E+002   9.27462100E-001   8.00583975E-001   9.27131992E-001
   1.10000000E+002   9.33855425E-001   8.00663324E-001   9.33589347E-001
   1.15000000E+002   9.39603443E-001   8.00722105E-001   9.39387347E-001
   1.20000000E+002   9.44661709E-001   8.00766390E-001   9.44484945E-001
   1.25000000E+002   9.49098247E-001   8.00800259E-001   9.48952647E-001
   1.30000000E+002   9.53394048E-001   8.00826510E-001   9.53273348E-001
   1.35000000E+002   9.57226014E-001   8.00847101E-001   9.57125326E-001
   1.40000000E+002   9.60500150E-001   8.00863426E-001   9.60415664E-001
   1.45000000E+002   9.63611207E-001   8.00876496E-001   9.63539914E-001
   1.50000000E+002   9.66291498E-001   8.00887053E-001   9.66231026E-001
   1.55000000E+002   9.69028695E-001   8.00895648E-001   9.68977149E-001
   1.60000000E+002   9.71096750E-001   8.00902698E-001   9.71052595E-001
   1.65000000E+002   9.73191173E-001   8.00908520E-001   9.73153186E-001
   1.70000000E+002   9.75069927E-001   8.00913358E-001   9.75037105E-001
   1.75000000E+002   9.76857748E-001   8.00917402E-001   9.76829278E-001
   1.80000000E+002   9.78509396E-001   8.00920802E-001   9.78484606E-001
   1.85000000E+002   9.80002134E-001   8.00923674E-001   9.79980470E-001
   1.90000000E+002   9.81160357E-001   8.00926112E-001   9.81141359E-001
   1.95000000E+002   9.82498358E-001   8.00928190E-001   9.82481642E-001
   2.00000000E+002   9.83670698E-001   8.00929971E-001   9.83655946E-001
   2.05000000E+002   9.84705084E-001   8.00931501E-001   9.84692025E-001
   2.10000000E+002   9.85648658E-001   8.00932822E-001   9.85637066E-001
   2.15000000E+002   9.86626388E-001   8.00933966E-001   9.86616070E-001
   2.20000000E+002   9.87408752E-001   8.00934961E-001   9.87399543E-001
   2.25000000E+002   9.88196705E-001   8.00935828E-001   9.88188467E-001
   2.30000000E+002   9.88935388E-001   8.00936586E-001   9.88927999E-001
   2.35000000E+002   9.89632291E-001   8.00937252E-001   9.89625649E-001
   2.40000000E+002   9.90170642E-001   8.00937837E-001   9.90164659E-001
   2.45000000E+002   9.90794503E-001   8.00938353E-001   9.90789102E-001
