# ./jetvheto -in n3lo-fixed-order/H125-LHC13-R04-mb-0-mt-1725-xmur050-xmuf100-log.fxd -xQ 0.25 -out benchmarks-n3lo-smallR/H125-LHC13-R04-mb-0-mt-1725-xmur050-xmuf100-xQ025-N3LO+NNLLb.res -scheme b -order 2 -ptmax 500.01 -fixed_order 3 -loop-mass t
# process = H    
# collider = pp   
# rts =  13000.000
# M   =    125.000
# muR =     62.500
# muF =    125.000
# Q   =     31.250
# p   =      5.000
# include_c1_squared =   F
# loop_mass  = t   
# alphas(MZ) =    0.11800
# alphas(M) =    0.11264
# alphas(muR) =    0.12516
# Rjet =      0.400
# order = NNLL
# pdf name and set = PDF4LHC15_nnlo_mc.LHgrid,    0
# matching scheme = b
# total cross sections [nb] at LO, NLOdiff, NNLOdiff, N3LOdiff =     0.016868    0.020591    0.008553    0.000949
#----------------------------------------------------------------------
# the lines that follow give the jet-veto efficiencies as a function of pt
#         pt            matched eff      resummed eff     fixed-order eff
   2.00000000E+001   4.50328068E-001   5.02998505E-001   4.44147613E-001
   2.50000000E+001   5.34697946E-001   5.71961140E-001   5.31088854E-001
   3.00000000E+001   6.08711126E-001   6.12536116E-001   6.07119654E-001
   3.50000000E+001   6.65980545E-001   6.34619614E-001   6.65155664E-001
   4.00000000E+001   7.12411331E-001   6.46220418E-001   7.11953965E-001
   4.50000000E+001   7.49939936E-001   6.52351381E-001   7.49666337E-001
   5.00000000E+001   7.82011611E-001   6.55691015E-001   7.81846163E-001
   5.50000000E+001   8.09610962E-001   6.57583244E-001   8.09509340E-001
   6.00000000E+001   8.32665300E-001   6.58699516E-001   8.32598772E-001
   6.50000000E+001   8.53621860E-001   6.59383436E-001   8.53579085E-001
   7.00000000E+001   8.71058658E-001   6.59817067E-001   8.71029528E-001
   7.50000000E+001   8.85181586E-001   6.60100540E-001   8.85160222E-001
   8.00000000E+001   8.97602304E-001   6.60290954E-001   8.97586419E-001
   8.50000000E+001   9.09027182E-001   6.60421987E-001   9.09015500E-001
   9.00000000E+001   9.18540123E-001   6.60514120E-001   9.18531151E-001
   9.50000000E+001   9.27442541E-001   6.60580163E-001   9.27435725E-001
   1.00000000E+002   9.34622037E-001   6.60628332E-001   9.34616627E-001
   1.05000000E+002   9.41082456E-001   6.60664020E-001   9.41078136E-001
   1.10000000E+002   9.46946405E-001   6.60690839E-001   9.46942949E-001
   1.15000000E+002   9.52188500E-001   6.60711254E-001   9.52185702E-001
   1.20000000E+002   9.56671862E-001   6.60726981E-001   9.56669565E-001
   1.25000000E+002   9.60449792E-001   6.60739228E-001   9.60447873E-001
   1.30000000E+002   9.64487357E-001   6.60748861E-001   9.64485783E-001
   1.35000000E+002   9.67949853E-001   6.60756508E-001   9.67948544E-001
   1.40000000E+002   9.70753075E-001   6.60762630E-001   9.70751967E-001
   1.45000000E+002   9.73491400E-001   6.60767571E-001   9.73490463E-001
   1.50000000E+002   9.75737208E-001   6.60771588E-001   9.75736407E-001
   1.55000000E+002   9.78394544E-001   6.60774877E-001   9.78393871E-001
   1.60000000E+002   9.79869406E-001   6.60777586E-001   9.79868816E-001
   1.65000000E+002   9.81667242E-001   6.60779833E-001   9.81666733E-001
   1.70000000E+002   9.83186106E-001   6.60781705E-001   9.83185663E-001
   1.75000000E+002   9.84740467E-001   6.60783275E-001   9.84740083E-001
   1.80000000E+002   9.86157281E-001   6.60784597E-001   9.86156947E-001
   1.85000000E+002   9.87423147E-001   6.60785716E-001   9.87422854E-001
   1.90000000E+002   9.88126292E-001   6.60786668E-001   9.88126031E-001
   1.95000000E+002   9.89298360E-001   6.60787480E-001   9.89298131E-001
   2.00000000E+002   9.90253727E-001   6.60788177E-001   9.90253524E-001
   2.05000000E+002   9.91028644E-001   6.60788776E-001   9.91028463E-001
   2.10000000E+002   9.91717088E-001   6.60789294E-001   9.91716927E-001
   2.15000000E+002   9.92587511E-001   6.60789743E-001   9.92587368E-001
   2.20000000E+002   9.93112381E-001   6.60790134E-001   9.93112253E-001
   2.25000000E+002   9.93729679E-001   6.60790474E-001   9.93729564E-001
   2.30000000E+002   9.94307795E-001   6.60790772E-001   9.94307692E-001
   2.35000000E+002   9.94837044E-001   6.60791034E-001   9.94836951E-001
   2.40000000E+002   9.95117284E-001   6.60791264E-001   9.95117200E-001
   2.45000000E+002   9.95622981E-001   6.60791468E-001   9.95622905E-001
