# ./jetvheto -in n3lo-fixed-order/H125-LHC13-R04-heft-xmur050-xmuf050-log.fxd -xQ 0.75 -out benchmarks-n3lo-smallR/H125-LHC13-R04-heft-xmur050-xmuf050-xQ075-NNLO+NNLLa.R0-1.0.res -scheme a -order 2 -ptmax 500.01 -fixed_order 2 -small-r -R0 1.0
# process = H    
# collider = pp   
# rts =  13000.000
# M   =    125.000
# muR =     62.500
# muF =     62.500
# Q   =     93.750
# p   =      5.000
# include_c1_squared =   F
# loop_mass  = none
# alphas(MZ) =    0.11800
# alphas(M) =    0.11264
# alphas(muR) =    0.12516
# Rjet =      0.400
# order = NNLL
# pdf name and set = PDF4LHC15_nnlo_mc.LHgrid,    0
# matching scheme = a
# total cross sections [nb] at LO, NLOdiff, NNLOdiff, N3LOdiff =     0.015055    0.019611    0.008998    0.001413
#----------------------------------------------------------------------
# the lines that follow give the jet-veto efficiencies as a function of pt
#         pt            matched eff      resummed eff     fixed-order eff
   2.00000000E+001   5.04002115E-001   5.48009469E-001   4.60803594E-001
   2.50000000E+001   5.90856167E-001   6.27030467E-001   5.46887027E-001
   3.00000000E+001   6.58602257E-001   6.82204905E-001   6.14137214E-001
   3.50000000E+001   7.11829412E-001   7.20425381E-001   6.67697748E-001
   4.00000000E+001   7.54279104E-001   7.46443174E-001   7.11386119E-001
   4.50000000E+001   7.88436674E-001   7.63590828E-001   7.47572136E-001
   5.00000000E+001   8.16166727E-001   7.74250988E-001   7.77943884E-001
   5.50000000E+001   8.38832233E-001   7.80178943E-001   8.03669340E-001
   6.00000000E+001   8.57414127E-001   7.82687894E-001   8.25569926E-001
   6.50000000E+001   8.72892660E-001   7.82791745E-001   8.44466421E-001
   7.00000000E+001   8.85944644E-001   7.81284538E-001   8.60904291E-001
   7.50000000E+001   8.96894680E-001   7.78786226E-001   8.75107581E-001
   8.00000000E+001   9.06340310E-001   7.75772036E-001   8.87583197E-001
   8.50000000E+001   9.14580631E-001   7.72590456E-001   8.98575401E-001
   9.00000000E+001   9.21854911E-001   7.69480884E-001   9.08294278E-001
   9.50000000E+001   9.28258435E-001   7.66591237E-001   9.16831850E-001
   1.00000000E+002   9.34030632E-001   7.64000077E-001   9.24436265E-001
   1.05000000E+002   9.39204099E-001   7.61735597E-001   9.31164894E-001
   1.10000000E+002   9.43940944E-001   7.59792953E-001   9.37208272E-001
   1.15000000E+002   9.48236987E-001   7.58148077E-001   9.42595447E-001
   1.20000000E+002   9.52185956E-001   7.56767663E-001   9.47451332E-001
   1.25000000E+002   9.55809107E-001   7.55615654E-001   9.51826691E-001
   1.30000000E+002   9.59098725E-001   7.54657316E-001   9.55739978E-001
   1.35000000E+002   9.62142010E-001   7.53861126E-001   9.59300155E-001
   1.40000000E+002   9.64937866E-001   7.53199540E-001   9.62525156E-001
   1.45000000E+002   9.67471886E-001   7.52649126E-001   9.65416341E-001
   1.50000000E+002   9.69831188E-001   7.52190286E-001   9.68073453E-001
   1.55000000E+002   9.71978079E-001   7.51806805E-001   9.70469565E-001
   1.60000000E+002   9.73972325E-001   7.51485360E-001   9.72672954E-001
   1.65000000E+002   9.75782797E-001   7.51215054E-001   9.74659615E-001
   1.70000000E+002   9.77472522E-001   7.50986984E-001   9.76498194E-001
   1.75000000E+002   9.79041104E-001   7.50793887E-001   9.78193000E-001
   1.80000000E+002   9.80464357E-001   7.50629830E-001   9.79723719E-001
   1.85000000E+002   9.81785135E-001   7.50489961E-001   9.81136260E-001
   1.90000000E+002   9.83009137E-001   7.50370303E-001   9.82438890E-001
   1.95000000E+002   9.84128224E-001   7.50267589E-001   9.83625593E-001
   2.00000000E+002   9.85165000E-001   7.50179129E-001   9.84720691E-001
   2.05000000E+002   9.86137205E-001   7.50102698E-001   9.85743353E-001
   2.10000000E+002   9.87022763E-001   7.50036453E-001   9.86672717E-001
   2.15000000E+002   9.87856961E-001   7.49978862E-001   9.87545040E-001
   2.20000000E+002   9.88631333E-001   7.49928647E-001   9.88352698E-001
   2.25000000E+002   9.89326320E-001   7.49884738E-001   9.89076840E-001
   2.30000000E+002   9.90015525E-001   7.49846237E-001   9.89791617E-001
   2.35000000E+002   9.90623224E-001   7.49812388E-001   9.90421838E-001
   2.40000000E+002   9.91200526E-001   7.49782553E-001   9.91019008E-001
   2.45000000E+002   9.91738052E-001   7.49756189E-001   9.91574107E-001
