# ./jetvheto -in n3lo-fixed-order/H125-LHC13-R04-mb-475-mt-1725-xmur200-xmuf200-log.fxd -xQ 0.5 -out benchmarks-n3lo-smallR/H125-LHC13-R04-mb-475-mt-1725-xmur200-xmuf200-xQ050-NNLO+NNLLa.R0-0.5.res -scheme a -order 2 -ptmax 500.01 -fixed_order 2 -small-r -loop-mass t+b -R0 0.5
# process = H    
# collider = pp   
# rts =  13000.000
# M   =    125.000
# muR =    250.000
# muF =    250.000
# Q   =     62.500
# p   =      5.000
# include_c1_squared =   F
# loop_mass  = t+b 
# alphas(MZ) =    0.11800
# alphas(M) =    0.11264
# alphas(muR) =    0.10244
# Rjet =      0.400
# order = NNLL
# pdf name and set = PDF4LHC15_nnlo_mc.LHgrid,    0
# matching scheme = a
# total cross sections [nb] at LO, NLOdiff, NNLOdiff, N3LOdiff =     0.010658    0.014649    0.010464    0.005358
#----------------------------------------------------------------------
# the lines that follow give the jet-veto efficiencies as a function of pt
#         pt            matched eff      resummed eff     fixed-order eff
   2.00000000E+001   4.94126174E-001   5.28673715E-001   5.35127193E-001
   2.50000000E+001   5.84148983E-001   6.11421150E-001   6.12011630E-001
   3.00000000E+001   6.53847545E-001   6.70014595E-001   6.70544774E-001
   3.50000000E+001   7.08499166E-001   7.10992506E-001   7.16922826E-001
   4.00000000E+001   7.51586231E-001   7.39116546E-001   7.54454779E-001
   4.50000000E+001   7.85855757E-001   7.57921329E-001   7.85384748E-001
   5.00000000E+001   8.13451147E-001   7.70105132E-001   8.11251726E-001
   5.50000000E+001   8.35946880E-001   7.77744863E-001   8.33093904E-001
   6.00000000E+001   8.54549197E-001   7.82399780E-001   8.51667304E-001
   6.50000000E+001   8.70299297E-001   7.85180086E-001   8.67697021E-001
   7.00000000E+001   8.83825786E-001   7.86827164E-001   8.81614063E-001
   7.50000000E+001   8.95526450E-001   7.87806700E-001   8.93709135E-001
   8.00000000E+001   9.05816386E-001   7.88397610E-001   9.04350221E-001
   8.50000000E+001   9.14832662E-001   7.88761961E-001   9.13659935E-001
   9.00000000E+001   9.22823077E-001   7.88992649E-001   9.21887551E-001
   9.50000000E+001   9.29910772E-001   7.89142908E-001   9.29163519E-001
   1.00000000E+002   9.36195090E-001   7.89243608E-001   9.35596095E-001
   1.05000000E+002   9.41880798E-001   7.89312980E-001   9.41398238E-001
   1.10000000E+002   9.46955124E-001   7.89361993E-001   9.46564151E-001
   1.15000000E+002   9.51526139E-001   7.89397427E-001   9.51207413E-001
   1.20000000E+002   9.55627928E-001   7.89423576E-001   9.55366494E-001
   1.25000000E+002   9.59319617E-001   7.89443229E-001   9.59103844E-001
   1.30000000E+002   9.62656934E-001   7.89458240E-001   9.62477770E-001
   1.35000000E+002   9.65700248E-001   7.89469872E-001   9.65550615E-001
   1.40000000E+002   9.68453431E-001   7.89479001E-001   9.68327755E-001
   1.45000000E+002   9.70949064E-001   7.89486247E-001   9.70842945E-001
   1.50000000E+002   9.73231102E-001   7.89492059E-001   9.73141036E-001
   1.55000000E+002   9.75304877E-001   7.89496763E-001   9.75228063E-001
   1.60000000E+002   9.77211439E-001   7.89500602E-001   9.77145625E-001
   1.65000000E+002   9.78952997E-001   7.89503759E-001   9.78896359E-001
   1.70000000E+002   9.80539942E-001   7.89506374E-001   9.80490997E-001
   1.75000000E+002   9.81970304E-001   7.89508553E-001   9.81927840E-001
   1.80000000E+002   9.83308480E-001   7.89510380E-001   9.83271498E-001
   1.85000000E+002   9.84536851E-001   7.89511920E-001   9.84504528E-001
   1.90000000E+002   9.85647115E-001   7.89513225E-001   9.85618768E-001
   1.95000000E+002   9.86676650E-001   7.89514336E-001   9.86651708E-001
   2.00000000E+002   9.87615036E-001   7.89515286E-001   9.87593023E-001
   2.05000000E+002   9.88487480E-001   7.89516102E-001   9.88467994E-001
   2.10000000E+002   9.89293652E-001   7.89516805E-001   9.89276353E-001
   2.15000000E+002   9.90036228E-001   7.89517414E-001   9.90020830E-001
   2.20000000E+002   9.90719208E-001   7.89517942E-001   9.90705465E-001
   2.25000000E+002   9.91345625E-001   7.89518403E-001   9.91333330E-001
   2.30000000E+002   9.91934449E-001   7.89518806E-001   9.91923423E-001
   2.35000000E+002   9.92483782E-001   7.89519159E-001   9.92473871E-001
   2.40000000E+002   9.92969725E-001   7.89519470E-001   9.92960797E-001
   2.45000000E+002   9.93435290E-001   7.89519743E-001   9.93427231E-001
