# ./jetvheto -in n3lo-fixed-order/H125-LHC13-R04-mb-0-mt-1725-xmur025-xmuf050-log.fxd -xQ 0.5 -out benchmarks-n3lo-smallR/H125-LHC13-R04-mb-0-mt-1725-xmur025-xmuf050-xQ050-NNLO+NNLLa.R0-2.0.res -scheme a -order 2 -ptmax 500.01 -small-r -fixed_order 2 -loop-mass t -R0 2.0
# process = H    
# collider = pp   
# rts =  13000.000
# M   =    125.000
# muR =     31.250
# muF =     62.500
# Q   =     62.500
# p   =      5.000
# include_c1_squared =   F
# loop_mass  = t   
# alphas(MZ) =    0.11800
# alphas(M) =    0.11264
# alphas(muR) =    0.14091
# Rjet =      0.400
# order = NNLL
# pdf name and set = PDF4LHC15_nnlo_mc.LHgrid,    0
# matching scheme = a
# total cross sections [nb] at LO, NLOdiff, NNLOdiff, N3LOdiff =     0.019855    0.024744    0.005009   -0.002663
#----------------------------------------------------------------------
# the lines that follow give the jet-veto efficiencies as a function of pt
#         pt            matched eff      resummed eff     fixed-order eff
   2.00000000E+001   5.15792365E-001   5.23318352E-001   4.32957478E-001
   2.50000000E+001   5.91106356E-001   5.83738768E-001   5.23268277E-001
   3.00000000E+001   6.50268325E-001   6.25248141E-001   5.94997758E-001
   3.50000000E+001   6.97603338E-001   6.53331078E-001   6.52852727E-001
   4.00000000E+001   7.36048906E-001   6.71839797E-001   7.00189076E-001
   4.50000000E+001   7.67820866E-001   6.83564454E-001   7.39439888E-001
   5.00000000E+001   7.94792926E-001   6.90612012E-001   7.72597069E-001
   5.50000000E+001   8.17513065E-001   6.94583521E-001   8.00363223E-001
   6.00000000E+001   8.37279288E-001   6.96653791E-001   8.24125039E-001
   6.50000000E+001   8.54636825E-001   6.97627065E-001   8.44589142E-001
   7.00000000E+001   8.69985793E-001   6.98013208E-001   8.62316742E-001
   7.50000000E+001   8.83431529E-001   6.98109922E-001   8.77562874E-001
   8.00000000E+001   8.95451295E-001   6.98078106E-001   8.90937501E-001
   8.50000000E+001   9.06181672E-001   6.97998588E-001   9.02686522E-001
   9.00000000E+001   9.15747903E-001   6.97909200E-001   9.13020832E-001
   9.50000000E+001   9.24162425E-001   6.97825815E-001   9.22017282E-001
   1.00000000E+002   9.31783834E-001   6.97753824E-001   9.30082050E-001
   1.05000000E+002   9.38462046E-001   6.97693969E-001   9.37101049E-001
   1.10000000E+002   9.44470954E-001   6.97645141E-001   9.43373741E-001
   1.15000000E+002   9.49861059E-001   6.97605665E-001   9.48969590E-001
   1.20000000E+002   9.54715248E-001   6.97573855E-001   9.53985574E-001
   1.25000000E+002   9.59124768E-001   6.97548220E-001   9.58523292E-001
   1.30000000E+002   9.63000424E-001   6.97527514E-001   9.62501393E-001
   1.35000000E+002   9.66515283E-001   6.97510732E-001   9.66098675E-001
   1.40000000E+002   9.69706439E-001   6.97497074E-001   9.69356558E-001
   1.45000000E+002   9.72585177E-001   6.97485905E-001   9.72289680E-001
   1.50000000E+002   9.75224894E-001   6.97476728E-001   9.74974013E-001
   1.55000000E+002   9.77586638E-001   6.97469150E-001   9.77372588E-001
   1.60000000E+002   9.79726275E-001   6.97462862E-001   9.79542793E-001
   1.65000000E+002   9.81646133E-001   6.97457620E-001   9.81488158E-001
   1.70000000E+002   9.83413753E-001   6.97453228E-001   9.83277166E-001
   1.75000000E+002   9.85020826E-001   6.97449532E-001   9.84902266E-001
   1.80000000E+002   9.86447789E-001   6.97446408E-001   9.86344489E-001
   1.85000000E+002   9.87767593E-001   6.97443756E-001   9.87677261E-001
   1.90000000E+002   9.88973801E-001   6.97441496E-001   9.88894543E-001
   1.95000000E+002   9.90062227E-001   6.97439562E-001   9.89992458E-001
   2.00000000E+002   9.91053396E-001   6.97437902E-001   9.90991790E-001
   2.05000000E+002   9.91963514E-001   6.97436470E-001   9.91908957E-001
   2.10000000E+002   9.92765635E-001   6.97435232E-001   9.92717184E-001
   2.15000000E+002   9.93530051E-001   6.97434157E-001   9.93486906E-001
   2.20000000E+002   9.94225563E-001   6.97433222E-001   9.94187045E-001
   2.25000000E+002   9.94825760E-001   6.97432405E-001   9.94791288E-001
   2.30000000E+002   9.95436000E-001   6.97431689E-001   9.95405075E-001
   2.35000000E+002   9.95944454E-001   6.97431061E-001   9.95916649E-001
   2.40000000E+002   9.96424668E-001   6.97430508E-001   9.96399614E-001
   2.45000000E+002   9.96863109E-001   6.97430019E-001   9.96840486E-001
