# ./jetvheto -in n3lo-fixed-order/H125-LHC13-R04-mb-0-mt-1725-xmur025-xmuf025-log.fxd -xQ 0.25 -out benchmarks-n3lo-smallR/H125-LHC13-R04-mb-0-mt-1725-xmur025-xmuf025-xQ025-N3LO+NNLLb.res -scheme b -order 2 -ptmax 500.01 -fixed_order 3 -loop-mass t
# process = H    
# collider = pp   
# rts =  13000.000
# M   =    125.000
# muR =     31.250
# muF =     31.250
# Q   =     31.250
# p   =      5.000
# include_c1_squared =   F
# loop_mass  = t   
# alphas(MZ) =    0.11800
# alphas(M) =    0.11264
# alphas(muR) =    0.14091
# Rjet =      0.400
# order = NNLL
# pdf name and set = PDF4LHC15_nnlo_mc.LHgrid,    0
# matching scheme = b
# total cross sections [nb] at LO, NLOdiff, NNLOdiff, N3LOdiff =     0.018140    0.025356    0.006043   -0.002471
#----------------------------------------------------------------------
# the lines that follow give the jet-veto efficiencies as a function of pt
#         pt            matched eff      resummed eff     fixed-order eff
   2.00000000E+001   4.74306734E-001   4.43698901E-001   4.87197444E-001
   2.50000000E+001   5.66317641E-001   5.07510197E-001   5.72808377E-001
   3.00000000E+001   6.37032468E-001   5.45375955E-001   6.40033654E-001
   3.50000000E+001   6.92360901E-001   5.66111229E-001   6.93667740E-001
   4.00000000E+001   7.37685928E-001   5.77045622E-001   7.38265029E-001
   4.50000000E+001   7.75619669E-001   5.82837563E-001   7.75885549E-001
   5.00000000E+001   8.06847654E-001   5.85996662E-001   8.06967537E-001
   5.50000000E+001   8.34455197E-001   5.87787953E-001   8.34514649E-001
   6.00000000E+001   8.56633631E-001   5.88845149E-001   8.56658691E-001
   6.50000000E+001   8.73487645E-001   5.89493050E-001   8.73491663E-001
   7.00000000E+001   8.90087452E-001   5.89903913E-001   8.90085568E-001
   7.50000000E+001   9.04109856E-001   5.90172530E-001   9.04105497E-001
   8.00000000E+001   9.15231582E-001   5.90352980E-001   9.15225465E-001
   8.50000000E+001   9.25763950E-001   5.90477161E-001   9.25758034E-001
   9.00000000E+001   9.34949161E-001   5.90564480E-001   9.34943752E-001
   9.50000000E+001   9.40858078E-001   5.90627073E-001   9.40852628E-001
   1.00000000E+002   9.48580174E-001   5.90672727E-001   9.48575677E-001
   1.05000000E+002   9.53818285E-001   5.90706552E-001   9.53814240E-001
   1.10000000E+002   9.59776018E-001   5.90731971E-001   9.59772663E-001
   1.15000000E+002   9.64721447E-001   5.90751321E-001   9.64718601E-001
   1.20000000E+002   9.68216919E-001   5.90766227E-001   9.68214412E-001
   1.25000000E+002   9.71134966E-001   5.90777835E-001   9.71132765E-001
   1.30000000E+002   9.74521470E-001   5.90786965E-001   9.74519594E-001
   1.35000000E+002   9.77100150E-001   5.90794213E-001   9.77098521E-001
   1.40000000E+002   9.79641219E-001   5.90800016E-001   9.79639817E-001
   1.45000000E+002   9.81973249E-001   5.90804699E-001   9.81972039E-001
   1.50000000E+002   9.83865073E-001   5.90808507E-001   9.83864021E-001
   1.55000000E+002   9.85619849E-001   5.90811624E-001   9.85618934E-001
   1.60000000E+002   9.87701657E-001   5.90814192E-001   9.87700872E-001
   1.65000000E+002   9.88955246E-001   5.90816321E-001   9.88954556E-001
   1.70000000E+002   9.89883697E-001   5.90818096E-001   9.89883087E-001
   1.75000000E+002   9.91392933E-001   5.90819584E-001   9.91392403E-001
   1.80000000E+002   9.92131435E-001   5.90820837E-001   9.92130965E-001
   1.85000000E+002   9.93252819E-001   5.90821898E-001   9.93252407E-001
   1.90000000E+002   9.93995312E-001   5.90822800E-001   9.93994946E-001
   1.95000000E+002   9.94937716E-001   5.90823570E-001   9.94937393E-001
   2.00000000E+002   9.95433424E-001   5.90824230E-001   9.95433136E-001
   2.05000000E+002   9.95969252E-001   5.90824799E-001   9.95968995E-001
   2.10000000E+002   9.96450727E-001   5.90825289E-001   9.96450497E-001
   2.15000000E+002   9.97142603E-001   5.90825715E-001   9.97142399E-001
   2.20000000E+002   9.97476333E-001   5.90826085E-001   9.97476149E-001
   2.25000000E+002   9.98020865E-001   5.90826408E-001   9.98020700E-001
   2.30000000E+002   9.98314412E-001   5.90826690E-001   9.98314264E-001
   2.35000000E+002   9.98428338E-001   5.90826938E-001   9.98428204E-001
   2.40000000E+002   9.98835812E-001   5.90827157E-001   9.98835691E-001
   2.45000000E+002   9.99142255E-001   5.90827349E-001   9.99142145E-001
