# ./jetvheto -in n3lo-fixed-order/H125-LHC13-R04-mb-475-mt-1725-xmur025-xmuf050-log.fxd -xQ 0.5 -out benchmarks-n3lo-smallR/H125-LHC13-R04-mb-475-mt-1725-xmur025-xmuf050-xQ050-N3LO+NNLLa.R0-2.0.res -scheme a -order 2 -ptmax 500.01 -fixed_order 3 -small-r -loop-mass t+b -R0 2.0
# process = H    
# collider = pp   
# rts =  13000.000
# M   =    125.000
# muR =     31.250
# muF =     62.500
# Q   =     62.500
# p   =      5.000
# include_c1_squared =   F
# loop_mass  = t+b 
# alphas(MZ) =    0.11800
# alphas(M) =    0.11264
# alphas(muR) =    0.14091
# Rjet =      0.400
# order = NNLL
# pdf name and set = PDF4LHC15_nnlo_mc.LHgrid,    0
# matching scheme = a
# total cross sections [nb] at LO, NLOdiff, NNLOdiff, N3LOdiff =     0.017683    0.024805    0.005009   -0.002663
#----------------------------------------------------------------------
# the lines that follow give the jet-veto efficiencies as a function of pt
#         pt            matched eff      resummed eff     fixed-order eff
   2.00000000E+001   4.84025270E-001   4.93938207E-001   4.46607809E-001
   2.50000000E+001   5.60448907E-001   5.50948105E-001   5.29091423E-001
   3.00000000E+001   6.29241547E-001   5.90111155E-001   6.04995778E-001
   3.50000000E+001   6.83763068E-001   6.16604134E-001   6.65141973E-001
   4.00000000E+001   7.24457842E-001   6.34062821E-001   7.10209715E-001
   4.50000000E+001   7.62309109E-001   6.45120489E-001   7.51667982E-001
   5.00000000E+001   7.91765187E-001   6.51765539E-001   7.83854807E-001
   5.50000000E+001   8.18325086E-001   6.55508845E-001   8.12489362E-001
   6.00000000E+001   8.39694345E-001   6.57458970E-001   8.35391522E-001
   6.50000000E+001   8.60827644E-001   6.58374719E-001   8.57640710E-001
   7.00000000E+001   8.75844844E-001   6.58737086E-001   8.73471931E-001
   7.50000000E+001   8.89807310E-001   6.58826851E-001   8.88027309E-001
   8.00000000E+001   9.02806878E-001   6.58795722E-001   9.01457188E-001
   8.50000000E+001   9.14496968E-001   6.58719869E-001   9.13463104E-001
   9.00000000E+001   9.24806841E-001   6.58634914E-001   9.24006495E-001
   9.50000000E+001   9.32515843E-001   6.58555778E-001   9.31891873E-001
   1.00000000E+002   9.40251346E-001   6.58487506E-001   9.39759362E-001
   1.05000000E+002   9.45991959E-001   6.58430769E-001   9.45601410E-001
   1.10000000E+002   9.51369857E-001   6.58384497E-001   9.51056796E-001
   1.15000000E+002   9.56732938E-001   6.58347096E-001   9.56479795E-001
   1.20000000E+002   9.61549844E-001   6.58316961E-001   9.61343529E-001
   1.25000000E+002   9.65273785E-001   6.58292679E-001   9.65104556E-001
   1.30000000E+002   9.68449259E-001   6.58273067E-001   9.68309576E-001
   1.35000000E+002   9.71891428E-001   6.58257173E-001   9.71775236E-001
   1.40000000E+002   9.75029492E-001   6.58244238E-001   9.74932267E-001
   1.45000000E+002   9.77641420E-001   6.58233661E-001   9.77559644E-001
   1.50000000E+002   9.79361598E-001   6.58224970E-001   9.79292492E-001
   1.55000000E+002   9.81849166E-001   6.58217794E-001   9.81790391E-001
   1.60000000E+002   9.84049766E-001   6.58211840E-001   9.83999542E-001
   1.65000000E+002   9.84898498E-001   6.58206875E-001   9.84855464E-001
   1.70000000E+002   9.86565583E-001   6.58202717E-001   9.86528488E-001
   1.75000000E+002   9.88157962E-001   6.58199217E-001   9.88125850E-001
   1.80000000E+002   9.89195186E-001   6.58196259E-001   9.89167305E-001
   1.85000000E+002   9.90145213E-001   6.58193748E-001   9.90120912E-001
   1.90000000E+002   9.91234789E-001   6.58191608E-001   9.91213525E-001
   1.95000000E+002   9.92253328E-001   6.58189777E-001   9.92234660E-001
   2.00000000E+002   9.93122584E-001   6.58188204E-001   9.93106144E-001
   2.05000000E+002   9.93706714E-001   6.58186849E-001   9.93692194E-001
   2.10000000E+002   9.94376669E-001   6.58185676E-001   9.94363808E-001
   2.15000000E+002   9.94782720E-001   6.58184659E-001   9.94771297E-001
   2.20000000E+002   9.95696759E-001   6.58183773E-001   9.95686578E-001
   2.25000000E+002   9.95951888E-001   6.58182999E-001   9.95942802E-001
   2.30000000E+002   9.96387550E-001   6.58182322E-001   9.96379414E-001
   2.35000000E+002   9.96647739E-001   6.58181727E-001   9.96640440E-001
   2.40000000E+002   9.96990585E-001   6.58181203E-001   9.96984021E-001
   2.45000000E+002   9.97492108E-001   6.58180741E-001   9.97486190E-001
