# ./jetvheto -in n3lo-fixed-order/H125-LHC13-R04-mb-0-mt-1725-xmur025-xmuf050-log.fxd -xQ 0.5 -out benchmarks-n3lo-smallR/H125-LHC13-R04-mb-0-mt-1725-xmur025-xmuf050-xQ050-N3LO+NNLLb.res -scheme b -order 2 -ptmax 500.01 -fixed_order 3 -loop-mass t
# process = H    
# collider = pp   
# rts =  13000.000
# M   =    125.000
# muR =     31.250
# muF =     62.500
# Q   =     62.500
# p   =      5.000
# include_c1_squared =   F
# loop_mass  = t   
# alphas(MZ) =    0.11800
# alphas(M) =    0.11264
# alphas(muR) =    0.14091
# Rjet =      0.400
# order = NNLL
# pdf name and set = PDF4LHC15_nnlo_mc.LHgrid,    0
# matching scheme = b
# total cross sections [nb] at LO, NLOdiff, NNLOdiff, N3LOdiff =     0.019855    0.024744    0.005009   -0.002663
#----------------------------------------------------------------------
# the lines that follow give the jet-veto efficiencies as a function of pt
#         pt            matched eff      resummed eff     fixed-order eff
   2.00000000E+001   4.90827723E-001   4.90779128E-001   4.93187641E-001
   2.50000000E+001   5.74650895E-001   5.60721203E-001   5.71298503E-001
   3.00000000E+001   6.46632963E-001   6.08981426E-001   6.42050719E-001
   3.50000000E+001   7.02778566E-001   6.41851962E-001   6.97801461E-001
   4.00000000E+001   7.44377050E-001   6.63757448E-001   7.39461966E-001
   4.50000000E+001   7.81613254E-001   6.77885528E-001   7.77318921E-001
   5.00000000E+001   8.10418826E-001   6.86623821E-001   8.06799084E-001
   5.50000000E+001   8.35591828E-001   6.91776457E-001   8.32664363E-001
   6.00000000E+001   8.55686437E-001   6.94667187E-001   8.53369721E-001
   6.50000000E+001   8.75298779E-001   6.96209024E-001   8.73494087E-001
   7.00000000E+001   8.89098494E-001   6.96989866E-001   8.87699485E-001
   7.50000000E+001   9.01828663E-001   6.97362157E-001   9.00749041E-001
   8.00000000E+001   9.13598374E-001   6.97524465E-001   9.12762648E-001
   8.50000000E+001   9.24122704E-001   6.97583201E-001   9.23472829E-001
   9.00000000E+001   9.33428359E-001   6.97593482E-001   9.32919743E-001
   9.50000000E+001   9.40331478E-001   6.97582860E-001   9.39931688E-001
   1.00000000E+002   9.47288269E-001   6.97564663E-001   9.46971221E-001
   1.05000000E+002   9.52348207E-001   6.97545068E-001   9.52095357E-001
   1.10000000E+002   9.57125011E-001   6.97526726E-001   9.56921641E-001
   1.15000000E+002   9.61875700E-001   6.97510594E-001   9.61710870E-001
   1.20000000E+002   9.66166802E-001   6.97496847E-001   9.66032250E-001
   1.25000000E+002   9.69472593E-001   6.97485327E-001   9.69362092E-001
   1.30000000E+002   9.72264942E-001   6.97475754E-001   9.72173659E-001
   1.35000000E+002   9.75298963E-001   6.97467830E-001   9.75222987E-001
   1.40000000E+002   9.78069333E-001   6.97461275E-001   9.78005743E-001
   1.45000000E+002   9.80393637E-001   6.97455847E-001   9.80340157E-001
   1.50000000E+002   9.81913841E-001   6.97451343E-001   9.81868648E-001
   1.55000000E+002   9.84115208E-001   6.97447594E-001   9.84076781E-001
   1.60000000E+002   9.86065420E-001   6.97444464E-001   9.86032595E-001
   1.65000000E+002   9.86797054E-001   6.97441840E-001   9.86768936E-001
   1.70000000E+002   9.88286105E-001   6.97439633E-001   9.88261879E-001
   1.75000000E+002   9.89678169E-001   6.97437769E-001   9.89657204E-001
   1.80000000E+002   9.90583493E-001   6.97436188E-001   9.90565298E-001
   1.85000000E+002   9.91408122E-001   6.97434844E-001   9.91392271E-001
   1.90000000E+002   9.92365818E-001   6.97433695E-001   9.92351955E-001
   1.95000000E+002   9.93263683E-001   6.97432711E-001   9.93251519E-001
   2.00000000E+002   9.94032078E-001   6.97431864E-001   9.94021372E-001
   2.05000000E+002   9.94537809E-001   6.97431133E-001   9.94528357E-001
   2.10000000E+002   9.95126005E-001   6.97430501E-001   9.95117637E-001
   2.15000000E+002   9.95473693E-001   6.97429951E-001   9.95466264E-001
   2.20000000E+002   9.96279131E-001   6.97429472E-001   9.96272514E-001
   2.25000000E+002   9.96497405E-001   6.97429053E-001   9.96491502E-001
   2.30000000E+002   9.96882229E-001   6.97428687E-001   9.96876945E-001
   2.35000000E+002   9.97102582E-001   6.97428364E-001   9.97097844E-001
   2.40000000E+002   9.97402723E-001   6.97428080E-001   9.97398463E-001
   2.45000000E+002   9.97853314E-001   6.97427830E-001   9.97849475E-001
