# ./jetvheto -in n3lo-fixed-order/H125-LHC13-R04-mb-0-mt-1725-xmur025-xmuf050-log.fxd -xQ 0.25 -out benchmarks-n3lo-smallR/H125-LHC13-R04-mb-0-mt-1725-xmur025-xmuf050-xQ025-NNLO+NNLLb.res -scheme b -order 2 -ptmax 500.01 -fixed_order 2 -loop-mass t
# process = H    
# collider = pp   
# rts =  13000.000
# M   =    125.000
# muR =     31.250
# muF =     62.500
# Q   =     31.250
# p   =      5.000
# include_c1_squared =   F
# loop_mass  = t   
# alphas(MZ) =    0.11800
# alphas(M) =    0.11264
# alphas(muR) =    0.14091
# Rjet =      0.400
# order = NNLL
# pdf name and set = PDF4LHC15_nnlo_mc.LHgrid,    0
# matching scheme = b
# total cross sections [nb] at LO, NLOdiff, NNLOdiff, N3LOdiff =     0.019855    0.024744    0.005009   -0.002663
#----------------------------------------------------------------------
# the lines that follow give the jet-veto efficiencies as a function of pt
#         pt            matched eff      resummed eff     fixed-order eff
   2.00000000E+001   4.06499110E-001   4.47958926E-001   3.69272721E-001
   2.50000000E+001   4.91048813E-001   5.10726945E-001   4.69726360E-001
   3.00000000E+001   5.61326215E-001   5.47789674E-001   5.49511805E-001
   3.50000000E+001   6.20396461E-001   5.68018982E-001   6.13864488E-001
   4.00000000E+001   6.70203423E-001   5.78665036E-001   6.66517199E-001
   4.50000000E+001   7.12328865E-001   5.84297222E-001   7.10176284E-001
   5.00000000E+001   7.48365159E-001   5.87367010E-001   7.47057362E-001
   5.50000000E+001   7.78766245E-001   5.89106951E-001   7.77941942E-001
   6.00000000E+001   8.04911324E-001   5.90133596E-001   8.04372457E-001
   6.50000000E+001   8.27498500E-001   5.90762682E-001   8.27134891E-001
   7.00000000E+001   8.47105601E-001   5.91161576E-001   8.46853484E-001
   7.50000000E+001   8.63991303E-001   5.91422354E-001   8.63811915E-001
   8.00000000E+001   8.78819076E-001   5.91597530E-001   8.78688651E-001
   8.50000000E+001   8.91853909E-001   5.91718079E-001   8.91757209E-001
   9.00000000E+001   9.03325099E-001   5.91802843E-001   9.03252169E-001
   9.50000000E+001   9.13314914E-001   5.91863603E-001   9.13259014E-001
   1.00000000E+002   9.22272980E-001   5.91907920E-001   9.22229539E-001
   1.05000000E+002   9.30071036E-001   5.91940754E-001   9.30036845E-001
   1.10000000E+002   9.37041234E-001   5.91965428E-001   9.37014025E-001
   1.15000000E+002   9.43260228E-001   5.91984211E-001   9.43238345E-001
   1.20000000E+002   9.48835442E-001   5.91998681E-001   9.48817676E-001
   1.25000000E+002   9.53879577E-001   5.92009948E-001   9.53865028E-001
   1.30000000E+002   9.58301922E-001   5.92018811E-001   9.58289911E-001
   1.35000000E+002   9.62301189E-001   5.92025846E-001   9.62291205E-001
   1.40000000E+002   9.65923339E-001   5.92031479E-001   9.65914981E-001
   1.45000000E+002   9.69184566E-001   5.92036025E-001   9.69177523E-001
   1.50000000E+002   9.72169303E-001   5.92039721E-001   9.72163335E-001
   1.55000000E+002   9.74836379E-001   5.92042747E-001   9.74831295E-001
   1.60000000E+002   9.77249590E-001   5.92045240E-001   9.77245237E-001
   1.65000000E+002   9.79412832E-001   5.92047306E-001   9.79409086E-001
   1.70000000E+002   9.81402256E-001   5.92049029E-001   9.81399018E-001
   1.75000000E+002   9.83209443E-001   5.92050473E-001   9.83206634E-001
   1.80000000E+002   9.84813281E-001   5.92051690E-001   9.84810833E-001
   1.85000000E+002   9.86295430E-001   5.92052719E-001   9.86293290E-001
   1.90000000E+002   9.87649163E-001   5.92053595E-001   9.87647285E-001
   1.95000000E+002   9.88870161E-001   5.92054342E-001   9.88868507E-001
   2.00000000E+002   9.89981536E-001   5.92054983E-001   9.89980075E-001
   2.05000000E+002   9.91001543E-001   5.92055535E-001   9.91000249E-001
   2.10000000E+002   9.91900398E-001   5.92056011E-001   9.91899248E-001
   2.15000000E+002   9.92756443E-001   5.92056424E-001   9.92755418E-001
   2.20000000E+002   9.93535105E-001   5.92056784E-001   9.93534190E-001
   2.25000000E+002   9.94207115E-001   5.92057097E-001   9.94206295E-001
   2.30000000E+002   9.94889753E-001   5.92057371E-001   9.94889017E-001
   2.35000000E+002   9.95458708E-001   5.92057612E-001   9.95458046E-001
   2.40000000E+002   9.95995850E-001   5.92057824E-001   9.95995254E-001
   2.45000000E+002   9.96486179E-001   5.92058011E-001   9.96485640E-001
