# ./jetvheto -in n3lo-fixed-order/H125-LHC13-R04-heft-xmur025-xmuf025-log.fxd -xQ 0.50 -out benchmarks-n3lo-smallR/H125-LHC13-R04-heft-xmur025-xmuf025-xQ050-NNLO+NNLLb.R0-1.0.res -scheme b -order 2 -ptmax 500.01 -fixed_order 2 -small-r -R0 1.0
# process = H    
# collider = pp   
# rts =  13000.000
# M   =    125.000
# muR =     31.250
# muF =     31.250
# Q   =     62.500
# p   =      5.000
# include_c1_squared =   F
# loop_mass  = none
# alphas(MZ) =    0.11800
# alphas(M) =    0.11264
# alphas(muR) =    0.14091
# Rjet =      0.400
# order = NNLL
# pdf name and set = PDF4LHC15_nnlo_mc.LHgrid,    0
# matching scheme = b
# total cross sections [nb] at LO, NLOdiff, NNLOdiff, N3LOdiff =     0.017443    0.024066    0.006043   -0.002471
#----------------------------------------------------------------------
# the lines that follow give the jet-veto efficiencies as a function of pt
#         pt            matched eff      resummed eff     fixed-order eff
   2.00000000E+001   4.45158328E-001   4.94967604E-001   3.38373752E-001
   2.50000000E+001   5.23596839E-001   5.64661766E-001   4.40845726E-001
   3.00000000E+001   5.86689870E-001   6.13093956E-001   5.22470871E-001
   3.50000000E+001   6.38648613E-001   6.46307795E-001   5.88924653E-001
   4.00000000E+001   6.81771324E-001   6.68631028E-001   6.43446572E-001
   4.50000000E+001   7.18333663E-001   6.83183052E-001   6.88991055E-001
   5.00000000E+001   7.49492258E-001   6.92305440E-001   7.27165838E-001
   5.50000000E+001   7.76537950E-001   6.97782592E-001   7.59644412E-001
   6.00000000E+001   8.00310199E-001   7.00932373E-001   7.87563277E-001
   6.50000000E+001   8.21133954E-001   7.02673746E-001   8.11517659E-001
   7.00000000E+001   8.39598860E-001   7.03604534E-001   8.32324488E-001
   7.50000000E+001   8.55764932E-001   7.04087848E-001   8.50233286E-001
   8.00000000E+001   8.70293761E-001   7.04331990E-001   8.66058653E-001
   8.50000000E+001   8.83188580E-001   7.04451132E-001   8.79919833E-001
   9.00000000E+001   8.94644428E-001   7.04506114E-001   8.92099610E-001
   9.50000000E+001   9.04766394E-001   7.04528757E-001   9.02767336E-001
   1.00000000E+002   9.13862462E-001   7.04535510E-001   9.12278160E-001
   1.05000000E+002   9.22009484E-001   7.04534793E-001   9.20743020E-001
   1.10000000E+002   9.29325363E-001   7.04530865E-001   9.28304481E-001
   1.15000000E+002   9.35897087E-001   7.04525842E-001   9.35067665E-001
   1.20000000E+002   9.41759118E-001   7.04520733E-001   9.41080155E-001
   1.25000000E+002   9.46939002E-001   7.04515990E-001   9.46379246E-001
   1.30000000E+002   9.51695606E-001   7.04511779E-001   9.51231025E-001
   1.35000000E+002   9.55995477E-001   7.04508130E-001   9.55607464E-001
   1.40000000E+002   9.59820493E-001   7.04505012E-001   9.59494501E-001
   1.45000000E+002   9.63343082E-001   7.04502365E-001   9.63067652E-001
   1.50000000E+002   9.66471736E-001   7.04500128E-001   9.66237800E-001
   1.55000000E+002   9.69317772E-001   7.04498239E-001   9.69118085E-001
   1.60000000E+002   9.71922366E-001   7.04496643E-001   9.71751113E-001
   1.65000000E+002   9.74304863E-001   7.04495293E-001   9.74157344E-001
   1.70000000E+002   9.76439699E-001   7.04494149E-001   9.76312085E-001
   1.75000000E+002   9.78412006E-001   7.04493176E-001   9.78301175E-001
   1.80000000E+002   9.80193700E-001   7.04492348E-001   9.80097082E-001
   1.85000000E+002   9.81779216E-001   7.04491640E-001   9.81694686E-001
   1.90000000E+002   9.83269880E-001   7.04491034E-001   9.83195673E-001
   1.95000000E+002   9.84637115E-001   7.04490512E-001   9.84571761E-001
   2.00000000E+002   9.85865001E-001   7.04490062E-001   9.85807264E-001
   2.05000000E+002   9.87023812E-001   7.04489673E-001   9.86972654E-001
   2.10000000E+002   9.88097880E-001   7.04489336E-001   9.88052425E-001
   2.15000000E+002   9.89043107E-001   7.04489042E-001   9.89002610E-001
   2.20000000E+002   9.89948664E-001   7.04488786E-001   9.89912492E-001
   2.25000000E+002   9.90778021E-001   7.04488562E-001   9.90745633E-001
   2.30000000E+002   9.91513807E-001   7.04488365E-001   9.91484738E-001
   2.35000000E+002   9.92210992E-001   7.04488193E-001   9.92184843E-001
   2.40000000E+002   9.92842073E-001   7.04488040E-001   9.92818501E-001
   2.45000000E+002   9.93434282E-001   7.04487905E-001   9.93412987E-001
