# ./jetvheto -in n3lo-fixed-order/H125-LHC13-R04-heft-xmur100-xmuf100-log.fxd -xQ 1.00 -out benchmarks-n3lo-smallR/H125-LHC13-R04-heft-xmur100-xmuf100-xQ100-N3LO+NNLLa.R0-1.5.res -scheme a -order 2 -ptmax 500.01 -fixed_order 3 -small-r -R0 1.5
# process = H    
# collider = pp   
# rts =  13000.000
# M   =    125.000
# muR =    125.000
# muF =    125.000
# Q   =    125.000
# p   =      5.000
# include_c1_squared =   F
# loop_mass  = none
# alphas(MZ) =    0.11800
# alphas(M) =    0.11264
# alphas(muR) =    0.11264
# Rjet =      0.400
# order = NNLL
# pdf name and set = PDF4LHC15_nnlo_mc.LHgrid,    0
# matching scheme = a
# total cross sections [nb] at LO, NLOdiff, NNLOdiff, N3LOdiff =     0.012945    0.016716    0.010146    0.003834
#----------------------------------------------------------------------
# the lines that follow give the jet-veto efficiencies as a function of pt
#         pt            matched eff      resummed eff     fixed-order eff
   2.00000000E+001   4.94317572E-001   6.05132312E-001   4.60774143E-001
   2.50000000E+001   5.80149250E-001   6.90483451E-001   5.45786875E-001
   3.00000000E+001   6.51987477E-001   7.50041408E-001   6.17068533E-001
   3.50000000E+001   7.07368569E-001   7.91276502E-001   6.72113648E-001
   4.00000000E+001   7.51711269E-001   8.19343144E-001   7.16667414E-001
   4.50000000E+001   7.87123884E-001   8.37802424E-001   7.52873009E-001
   5.00000000E+001   8.16648240E-001   8.49177948E-001   7.83562730E-001
   5.50000000E+001   8.41434951E-001   8.55299757E-001   8.09784074E-001
   6.00000000E+001   8.61827700E-001   8.57508529E-001   8.31871310E-001
   6.50000000E+001   8.79801589E-001   8.56807849E-001   8.51599627E-001
   7.00000000E+001   8.94499616E-001   8.53970849E-001   8.68219188E-001
   7.50000000E+001   9.06235130E-001   8.49601474E-001   8.82015993E-001
   8.00000000E+001   9.16294696E-001   8.44181267E-001   8.94125116E-001
   8.50000000E+001   9.25261793E-001   8.38097656E-001   9.05069202E-001
   9.00000000E+001   9.32666809E-001   8.31664189E-001   9.14424589E-001
   9.50000000E+001   9.39392922E-001   8.25130777E-001   9.22983790E-001
   1.00000000E+002   9.44761895E-001   8.18695032E-001   9.30122626E-001
   1.05000000E+002   9.49527886E-001   8.12507719E-001   9.36529413E-001
   1.10000000E+002   9.53811774E-001   8.06677461E-001   9.42317122E-001
   1.15000000E+002   9.57622960E-001   8.01276741E-001   9.47498999E-001
   1.20000000E+002   9.60894223E-001   7.96345920E-001   9.52012685E-001
   1.25000000E+002   9.63678896E-001   7.91899165E-001   9.55913202E-001
   1.30000000E+002   9.66605967E-001   7.87930193E-001   9.59813209E-001
   1.35000000E+002   9.69185688E-001   7.84417812E-001   9.63254687E-001
   1.40000000E+002   9.71295897E-001   7.81330915E-001   9.66126784E-001
   1.45000000E+002   9.73398010E-001   7.78632689E-001   9.68889494E-001
   1.50000000E+002   9.75156302E-001   7.76283952E-001   9.71225357E-001
   1.55000000E+002   9.77169352E-001   7.74245537E-001   9.73731807E-001
   1.60000000E+002   9.78444096E-001   7.72479949E-001   9.75444349E-001
   1.65000000E+002   9.79909356E-001   7.70952430E-001   9.77283286E-001
   1.70000000E+002   9.81206556E-001   7.69631465E-001   9.78904621E-001
   1.75000000E+002   9.82508705E-001   7.68488960E-001   9.80485847E-001
   1.80000000E+002   9.83722248E-001   7.67500191E-001   9.81941189E-001
   1.85000000E+002   9.84822376E-001   7.66643608E-001   9.83251126E-001
   1.90000000E+002   9.85557466E-001   7.65900565E-001   9.84170523E-001
   1.95000000E+002   9.86591579E-001   7.65255010E-001   9.85362313E-001
   2.00000000E+002   9.87474820E-001   7.64693177E-001   9.86383405E-001
   2.05000000E+002   9.88230840E-001   7.64203292E-001   9.87260065E-001
   2.10000000E+002   9.88921606E-001   7.63775298E-001   9.88056295E-001
   2.15000000E+002   9.89707813E-001   7.63400610E-001   9.88934225E-001
   2.20000000E+002   9.90272102E-001   7.63071907E-001   9.89579737E-001
   2.25000000E+002   9.90882407E-001   7.62782936E-001   9.90261153E-001
   2.30000000E+002   9.91459506E-001   7.62528357E-001   9.90900921E-001
   2.35000000E+002   9.92005023E-001   7.62303604E-001   9.91501805E-001
   2.40000000E+002   9.92377154E-001   7.62104768E-001   9.91923260E-001
   2.45000000E+002   9.92883543E-001   7.61928497E-001   9.92473011E-001
