# ./jetvheto -in n3lo-fixed-order/H125-LHC13-R04-mb-475-mt-1725-xmur100-xmuf050-log.fxd -xQ 0.25 -out benchmarks-n3lo-smallR/H125-LHC13-R04-mb-475-mt-1725-xmur100-xmuf050-xQ025-N3LO+NNLLb.R0-2.0.res -scheme b -order 2 -ptmax 500.01 -fixed_order 3 -small-r -loop-mass t+b -R0 2.0
# process = H    
# collider = pp   
# rts =  13000.000
# M   =    125.000
# muR =    125.000
# muF =     62.500
# Q   =     31.250
# p   =      5.000
# include_c1_squared =   F
# loop_mass  = t+b 
# alphas(MZ) =    0.11800
# alphas(M) =    0.11264
# alphas(muR) =    0.11264
# Rjet =      0.400
# order = NNLL
# pdf name and set = PDF4LHC15_nnlo_mc.LHgrid,    0
# matching scheme = b
# total cross sections [nb] at LO, NLOdiff, NNLOdiff, N3LOdiff =     0.011575    0.016866    0.010424    0.004163
#----------------------------------------------------------------------
# the lines that follow give the jet-veto efficiencies as a function of pt
#         pt            matched eff      resummed eff     fixed-order eff
   2.00000000E+001   4.13011393E-001   5.11717642E-001   3.95043602E-001
   2.50000000E+001   4.97731113E-001   5.82311819E-001   4.88534588E-001
   3.00000000E+001   5.70465062E-001   6.24128321E-001   5.66104441E-001
   3.50000000E+001   6.30203584E-001   6.47004368E-001   6.28112290E-001
   4.00000000E+001   6.78292175E-001   6.59060526E-001   6.77231454E-001
   4.50000000E+001   7.20247179E-001   6.65443992E-001   7.19705835E-001
   5.00000000E+001   7.54739177E-001   6.68924887E-001   7.54443972E-001
   5.50000000E+001   7.84559703E-001   6.70898369E-001   7.84394199E-001
   6.00000000E+001   8.09547456E-001   6.72062996E-001   8.09449218E-001
   6.50000000E+001   8.32047994E-001   6.72776699E-001   8.31989521E-001
   7.00000000E+001   8.50349320E-001   6.73229275E-001   8.50311618E-001
   7.50000000E+001   8.66516791E-001   6.73525159E-001   8.66492063E-001
   8.00000000E+001   8.80992321E-001   6.73723922E-001   8.80975853E-001
   8.50000000E+001   8.93842060E-001   6.73860705E-001   8.93830869E-001
   9.00000000E+001   9.05120008E-001   6.73956884E-001   9.05112243E-001
   9.50000000E+001   9.14531525E-001   6.74025829E-001   9.14525864E-001
   1.00000000E+002   9.23258973E-001   6.74076115E-001   9.23254849E-001
   1.05000000E+002   9.30583174E-001   6.74113372E-001   9.30580037E-001
   1.10000000E+002   9.37194068E-001   6.74141369E-001   9.37191662E-001
   1.15000000E+002   9.43342227E-001   6.74162683E-001   9.43340381E-001
   1.20000000E+002   9.48847704E-001   6.74179101E-001   9.48846269E-001
   1.25000000E+002   9.53603235E-001   6.74191887E-001   9.53602088E-001
   1.30000000E+002   9.57780139E-001   6.74201943E-001   9.57779208E-001
   1.35000000E+002   9.61773260E-001   6.74209926E-001   9.61772510E-001
   1.40000000E+002   9.65410412E-001   6.74216318E-001   9.65409802E-001
   1.45000000E+002   9.68606084E-001   6.74221476E-001   9.68605581E-001
   1.50000000E+002   9.71279295E-001   6.74225670E-001   9.71278869E-001
   1.55000000E+002   9.74049413E-001   6.74229104E-001   9.74049059E-001
   1.60000000E+002   9.76541407E-001   6.74231932E-001   9.76541110E-001
   1.65000000E+002   9.78364641E-001   6.74234277E-001   9.78364382E-001
   1.70000000E+002   9.80362738E-001   6.74236232E-001   9.80362517E-001
   1.75000000E+002   9.82231375E-001   6.74237871E-001   9.82231187E-001
   1.80000000E+002   9.83757293E-001   6.74239251E-001   9.83757129E-001
   1.85000000E+002   9.85170228E-001   6.74240420E-001   9.85170084E-001
   1.90000000E+002   9.86541689E-001   6.74241413E-001   9.86541564E-001
   1.95000000E+002   9.87800719E-001   6.74242261E-001   9.87800610E-001
   2.00000000E+002   9.88926522E-001   6.74242989E-001   9.88926426E-001
   2.05000000E+002   9.89883433E-001   6.74243615E-001   9.89883347E-001
   2.10000000E+002   9.90794202E-001   6.74244155E-001   9.90794127E-001
   2.15000000E+002   9.91572480E-001   6.74244624E-001   9.91572413E-001
   2.20000000E+002   9.92490649E-001   6.74245032E-001   9.92490589E-001
   2.25000000E+002   9.93092197E-001   6.74245387E-001   9.93092144E-001
   2.30000000E+002   9.93749220E-001   6.74245698E-001   9.93749172E-001
   2.35000000E+002   9.94277855E-001   6.74245972E-001   9.94277812E-001
   2.40000000E+002   9.94810673E-001   6.74246212E-001   9.94810633E-001
   2.45000000E+002   9.95363599E-001   6.74246424E-001   9.95363563E-001
