# ./jetvheto -in n3lo-fixed-order/H125-LHC13-R04-mb-0-mt-1725-xmur050-xmuf050-log.fxd -xQ 0.25 -out benchmarks-n3lo-smallR/H125-LHC13-R04-mb-0-mt-1725-xmur050-xmuf050-xQ025-NNLO+NNLLa.R0-0.5.res -scheme a -order 2 -ptmax 500.01 -small-r -fixed_order 2 -loop-mass t -R0 0.5
# process = H    
# collider = pp   
# rts =  13000.000
# M   =    125.000
# muR =     62.500
# muF =     62.500
# Q   =     31.250
# p   =      5.000
# include_c1_squared =   F
# loop_mass  = t   
# alphas(MZ) =    0.11800
# alphas(M) =    0.11264
# alphas(muR) =    0.12516
# Rjet =      0.400
# order = NNLL
# pdf name and set = PDF4LHC15_nnlo_mc.LHgrid,    0
# matching scheme = a
# total cross sections [nb] at LO, NLOdiff, NNLOdiff, N3LOdiff =     0.015885    0.020561    0.008998    0.001413
#----------------------------------------------------------------------
# the lines that follow give the jet-veto efficiencies as a function of pt
#         pt            matched eff      resummed eff     fixed-order eff
   2.00000000E+001   4.64079935E-001   4.94477220E-001   4.69057413E-001
   2.50000000E+001   5.51222501E-001   5.64598482E-001   5.55288671E-001
   3.00000000E+001   6.19547393E-001   6.06116954E-001   6.22338019E-001
   3.50000000E+001   6.74055446E-001   6.28818276E-001   6.75875821E-001
   4.00000000E+001   7.18210966E-001   6.40777897E-001   7.19396295E-001
   4.50000000E+001   7.54561237E-001   6.47108811E-001   7.55344248E-001
   5.00000000E+001   7.85156128E-001   6.50560595E-001   7.85683467E-001
   5.50000000E+001   8.10658102E-001   6.52517424E-001   8.11020538E-001
   6.00000000E+001   8.32503331E-001   6.53672171E-001   8.32757246E-001
   6.50000000E+001   8.51320646E-001   6.54379801E-001   8.51501964E-001
   7.00000000E+001   8.67602790E-001   6.54828518E-001   8.67734675E-001
   7.50000000E+001   8.81665666E-001   6.55121875E-001   8.81763053E-001
   8.00000000E+001   8.94014040E-001   6.55318940E-001   8.94087077E-001
   8.50000000E+001   9.04891074E-001   6.55454553E-001   9.04946611E-001
   9.00000000E+001   9.14474541E-001   6.55549910E-001   9.14517318E-001
   9.50000000E+001   9.22869765E-001   6.55618264E-001   9.22903074E-001
   1.00000000E+002   9.30413938E-001   6.55668121E-001   9.30440166E-001
   1.05000000E+002   9.37014403E-001   6.55705058E-001   9.37035250E-001
   1.10000000E+002   9.42919928E-001   6.55732816E-001   9.42936658E-001
   1.15000000E+002   9.48219022E-001   6.55753947E-001   9.48232561E-001
   1.20000000E+002   9.52987099E-001   6.55770225E-001   9.52998144E-001
   1.25000000E+002   9.57317383E-001   6.55782901E-001   9.57326460E-001
   1.30000000E+002   9.61141139E-001   6.55792872E-001   9.61148649E-001
   1.35000000E+002   9.64595525E-001   6.55800786E-001   9.64601780E-001
   1.40000000E+002   9.67745691E-001   6.55807123E-001   9.67750932E-001
   1.45000000E+002   9.70608221E-001   6.55812238E-001   9.70612637E-001
   1.50000000E+002   9.73228821E-001   6.55816395E-001   9.73232562E-001
   1.55000000E+002   9.75583811E-001   6.55819799E-001   9.75586996E-001
   1.60000000E+002   9.77724522E-001   6.55822604E-001   9.77727247E-001
   1.65000000E+002   9.79658549E-001   6.55824929E-001   9.79660891E-001
   1.70000000E+002   9.81437582E-001   6.55826867E-001   9.81439603E-001
   1.75000000E+002   9.83051919E-001   6.55828492E-001   9.83053670E-001
   1.80000000E+002   9.84505999E-001   6.55829860E-001   9.84507522E-001
   1.85000000E+002   9.85852947E-001   6.55831019E-001   9.85854277E-001
   1.90000000E+002   9.87084249E-001   6.55832004E-001   9.87085413E-001
   1.95000000E+002   9.88207290E-001   6.55832845E-001   9.88208314E-001
   2.00000000E+002   9.89235070E-001   6.55833566E-001   9.89235973E-001
   2.05000000E+002   9.90176961E-001   6.55834186E-001   9.90177759E-001
   2.10000000E+002   9.91020569E-001   6.55834722E-001   9.91021276E-001
   2.15000000E+002   9.91819011E-001   6.55835187E-001   9.91819641E-001
   2.20000000E+002   9.92548500E-001   6.55835591E-001   9.92549062E-001
   2.25000000E+002   9.93196252E-001   6.55835944E-001   9.93196753E-001
   2.30000000E+002   9.93832647E-001   6.55836252E-001   9.93833097E-001
   2.35000000E+002   9.94379958E-001   6.55836523E-001   9.94380362E-001
   2.40000000E+002   9.94897537E-001   6.55836761E-001   9.94897900E-001
   2.45000000E+002   9.95370878E-001   6.55836972E-001   9.95371206E-001
