# ./jetvheto -in n3lo-fixed-order/H125-LHC13-R04-mb-0-mt-1725-xmur025-xmuf050-log.fxd -xQ 0.0625 -out benchmarks-n3lo-smallR/H125-LHC13-R04-mb-0-mt-1725-xmur025-xmuf050-xQ0625-NNLO+NNLLb.R0-2.0.res -scheme b -order 2 -ptmax 500.01 -small-r -fixed_order 2 -loop-mass t -R0 2.0
# process = H    
# collider = pp   
# rts =  13000.000
# M   =    125.000
# muR =     31.250
# muF =     62.500
# Q   =      7.812
# p   =      5.000
# include_c1_squared =   F
# loop_mass  = t   
# alphas(MZ) =    0.11800
# alphas(M) =    0.11264
# alphas(muR) =    0.14091
# Rjet =      0.400
# order = NNLL
# pdf name and set = PDF4LHC15_nnlo_mc.LHgrid,    0
# matching scheme = b
# total cross sections [nb] at LO, NLOdiff, NNLOdiff, N3LOdiff =     0.019855    0.024744    0.005009   -0.002663
#----------------------------------------------------------------------
# the lines that follow give the jet-veto efficiencies as a function of pt
#         pt            matched eff      resummed eff     fixed-order eff
   2.00000000E+001   3.69631986E-001   3.57330126E-002   3.69272721E-001
   2.50000000E+001   4.69822248E-001   3.58885487E-002   4.69726360E-001
   3.00000000E+001   5.49541767E-001   3.59341280E-002   5.49511805E-001
   3.50000000E+001   6.13874877E-001   3.59506103E-002   6.13864488E-001
   4.00000000E+001   6.66520999E-001   3.59575272E-002   6.66517199E-001
   4.50000000E+001   7.10177670E-001   3.59607697E-002   7.10176284E-001
   5.00000000E+001   7.47057817E-001   3.59624255E-002   7.47057362E-001
   5.50000000E+001   7.77942032E-001   3.59633307E-002   7.77941942E-001
   6.00000000E+001   8.04372411E-001   3.59638537E-002   8.04372457E-001
   6.50000000E+001   8.27134800E-001   3.59641703E-002   8.27134891E-001
   7.00000000E+001   8.46853385E-001   3.59643694E-002   8.46853484E-001
   7.50000000E+001   8.63811824E-001   3.59644989E-002   8.63811915E-001
   8.00000000E+001   8.78688572E-001   3.59645857E-002   8.78688651E-001
   8.50000000E+001   8.91757142E-001   3.59646452E-002   8.91757209E-001
   9.00000000E+001   9.03252113E-001   3.59646870E-002   9.03252169E-001
   9.50000000E+001   9.13258968E-001   3.59647170E-002   9.13259014E-001
   1.00000000E+002   9.22229501E-001   3.59647388E-002   9.22229539E-001
   1.05000000E+002   9.30036813E-001   3.59647549E-002   9.30036845E-001
   1.10000000E+002   9.37013999E-001   3.59647671E-002   9.37014025E-001
   1.15000000E+002   9.43238324E-001   3.59647763E-002   9.43238345E-001
   1.20000000E+002   9.48817658E-001   3.59647834E-002   9.48817676E-001
   1.25000000E+002   9.53865013E-001   3.59647889E-002   9.53865028E-001
   1.30000000E+002   9.58289898E-001   3.59647933E-002   9.58289911E-001
   1.35000000E+002   9.62291194E-001   3.59647968E-002   9.62291205E-001
   1.40000000E+002   9.65914972E-001   3.59647995E-002   9.65914981E-001
   1.45000000E+002   9.69177516E-001   3.59648018E-002   9.69177523E-001
   1.50000000E+002   9.72163329E-001   3.59648036E-002   9.72163335E-001
   1.55000000E+002   9.74831289E-001   3.59648051E-002   9.74831295E-001
   1.60000000E+002   9.77245232E-001   3.59648063E-002   9.77245237E-001
   1.65000000E+002   9.79409082E-001   3.59648073E-002   9.79409086E-001
   1.70000000E+002   9.81399015E-001   3.59648081E-002   9.81399018E-001
   1.75000000E+002   9.83206631E-001   3.59648089E-002   9.83206634E-001
   1.80000000E+002   9.84810830E-001   3.59648095E-002   9.84810833E-001
   1.85000000E+002   9.86293288E-001   3.59648100E-002   9.86293290E-001
   1.90000000E+002   9.87647283E-001   3.59648104E-002   9.87647285E-001
   1.95000000E+002   9.88868505E-001   3.59648108E-002   9.88868507E-001
   2.00000000E+002   9.89980073E-001   3.59648111E-002   9.89980075E-001
   2.05000000E+002   9.91000247E-001   3.59648113E-002   9.91000249E-001
   2.10000000E+002   9.91899247E-001   3.59648116E-002   9.91899248E-001
   2.15000000E+002   9.92755417E-001   3.59648118E-002   9.92755418E-001
   2.20000000E+002   9.93534189E-001   3.59648120E-002   9.93534190E-001
   2.25000000E+002   9.94206294E-001   3.59648121E-002   9.94206295E-001
   2.30000000E+002   9.94889016E-001   3.59648122E-002   9.94889017E-001
   2.35000000E+002   9.95458046E-001   3.59648124E-002   9.95458046E-001
   2.40000000E+002   9.95995253E-001   3.59648125E-002   9.95995254E-001
   2.45000000E+002   9.96485639E-001   3.59648126E-002   9.96485640E-001
