# ./jetvheto -in n3lo-fixed-order/H125-LHC13-R04-mb-475-mt-1725-xmur200-xmuf200-log.fxd -xQ 0.0625 -out benchmarks-n3lo-smallR/H125-LHC13-R04-mb-475-mt-1725-xmur200-xmuf200-xQ0625-N3LO+NNLLa.R0-1.5.res -scheme a -order 2 -ptmax 500.01 -fixed_order 3 -small-r -loop-mass t+b -R0 1.5
# process = H    
# collider = pp   
# rts =  13000.000
# M   =    125.000
# muR =    250.000
# muF =    250.000
# Q   =      7.812
# p   =      5.000
# include_c1_squared =   F
# loop_mass  = t+b 
# alphas(MZ) =    0.11800
# alphas(M) =    0.11264
# alphas(muR) =    0.10244
# Rjet =      0.400
# order = NNLL
# pdf name and set = PDF4LHC15_nnlo_mc.LHgrid,    0
# matching scheme = a
# total cross sections [nb] at LO, NLOdiff, NNLOdiff, N3LOdiff =     0.010658    0.014649    0.010464    0.005358
#----------------------------------------------------------------------
# the lines that follow give the jet-veto efficiencies as a function of pt
#         pt            matched eff      resummed eff     fixed-order eff
   2.00000000E+001   4.72360613E-001   3.70482318E-001   4.72417372E-001
   2.50000000E+001   5.58601255E-001   3.71082490E-001   5.58640123E-001
   3.00000000E+001   6.24463272E-001   3.71258224E-001   6.24485219E-001
   3.50000000E+001   6.78156816E-001   3.71321757E-001   6.78169499E-001
   4.00000000E+001   7.21879240E-001   3.71348416E-001   7.21886815E-001
   4.50000000E+001   7.57179874E-001   3.71360913E-001   7.57184541E-001
   5.00000000E+001   7.88187287E-001   3.71367294E-001   7.88190304E-001
   5.50000000E+001   8.13417169E-001   3.71370783E-001   8.13419167E-001
   6.00000000E+001   8.34965812E-001   3.71372798E-001   8.34967174E-001
   6.50000000E+001   8.53309803E-001   3.71374018E-001   8.53310754E-001
   7.00000000E+001   8.69935160E-001   3.71374786E-001   8.69935842E-001
   7.50000000E+001   8.83713882E-001   3.71375285E-001   8.83714379E-001
   8.00000000E+001   8.95723790E-001   3.71375619E-001   8.95724159E-001
   8.50000000E+001   9.06418604E-001   3.71375849E-001   9.06418883E-001
   9.00000000E+001   9.15566746E-001   3.71376010E-001   9.15566959E-001
   9.50000000E+001   9.24115319E-001   3.71376125E-001   9.24115484E-001
   1.00000000E+002   9.31339759E-001   3.71376209E-001   9.31339889E-001
   1.05000000E+002   9.37709439E-001   3.71376272E-001   9.37709541E-001
   1.10000000E+002   9.43233528E-001   3.71376318E-001   9.43233610E-001
   1.15000000E+002   9.48468801E-001   3.71376354E-001   9.48468868E-001
   1.20000000E+002   9.53211763E-001   3.71376381E-001   9.53211816E-001
   1.25000000E+002   9.57163998E-001   3.71376403E-001   9.57164043E-001
   1.30000000E+002   9.60924175E-001   3.71376419E-001   9.60924212E-001
   1.35000000E+002   9.64153397E-001   3.71376433E-001   9.64153428E-001
   1.40000000E+002   9.67379936E-001   3.71376443E-001   9.67379962E-001
   1.45000000E+002   9.69958095E-001   3.71376452E-001   9.69958117E-001
   1.50000000E+002   9.72486777E-001   3.71376459E-001   9.72486795E-001
   1.55000000E+002   9.74739821E-001   3.71376465E-001   9.74739837E-001
   1.60000000E+002   9.76716081E-001   3.71376469E-001   9.76716094E-001
   1.65000000E+002   9.78438129E-001   3.71376473E-001   9.78438140E-001
   1.70000000E+002   9.80254583E-001   3.71376477E-001   9.80254593E-001
   1.75000000E+002   9.81738903E-001   3.71376479E-001   9.81738911E-001
   1.80000000E+002   9.83341674E-001   3.71376482E-001   9.83341681E-001
   1.85000000E+002   9.84503491E-001   3.71376484E-001   9.84503497E-001
   1.90000000E+002   9.85678575E-001   3.71376485E-001   9.85678580E-001
   1.95000000E+002   9.86727348E-001   3.71376487E-001   9.86727353E-001
   2.00000000E+002   9.87867176E-001   3.71376488E-001   9.87867180E-001
   2.05000000E+002   9.88666906E-001   3.71376489E-001   9.88666910E-001
   2.10000000E+002   9.89428430E-001   3.71376490E-001   9.89428433E-001
   2.15000000E+002   9.90242405E-001   3.71376491E-001   9.90242408E-001
   2.20000000E+002   9.90995801E-001   3.71376491E-001   9.90995804E-001
   2.25000000E+002   9.91586970E-001   3.71376492E-001   9.91586972E-001
   2.30000000E+002   9.92154947E-001   3.71376492E-001   9.92154949E-001
   2.35000000E+002   9.92741276E-001   3.71376493E-001   9.92741278E-001
   2.40000000E+002   9.93251257E-001   3.71376493E-001   9.93251258E-001
   2.45000000E+002   9.93744578E-001   3.71376494E-001   9.93744580E-001
