# ./jetvheto -in n3lo-fixed-order/H125-LHC13-R04-heft-xmur100-xmuf050-log.fxd -xQ 0.50 -out benchmarks-n3lo-smallR/H125-LHC13-R04-heft-xmur100-xmuf050-xQ050-NNLO+NNLLa.R0-1.0.res -scheme a -order 2 -ptmax 500.01 -fixed_order 2 -small-r -R0 1.0
# process = H    
# collider = pp   
# rts =  13000.000
# M   =    125.000
# muR =    125.000
# muF =     62.500
# Q   =     62.500
# p   =      5.000
# include_c1_squared =   F
# loop_mass  = none
# alphas(MZ) =    0.11800
# alphas(M) =    0.11264
# alphas(muR) =    0.11264
# Rjet =      0.400
# order = NNLL
# pdf name and set = PDF4LHC15_nnlo_mc.LHgrid,    0
# matching scheme = a
# total cross sections [nb] at LO, NLOdiff, NNLOdiff, N3LOdiff =     0.012193    0.016617    0.010424    0.004163
#----------------------------------------------------------------------
# the lines that follow give the jet-veto efficiencies as a function of pt
#         pt            matched eff      resummed eff     fixed-order eff
   2.00000000E+001   4.70532417E-001   5.01200096E-001   5.00005148E-001
   2.50000000E+001   5.60252887E-001   5.84822320E-001   5.80577103E-001
   3.00000000E+001   6.30647034E-001   6.44817348E-001   6.42777972E-001
   3.50000000E+001   6.86100162E-001   6.87343973E-001   6.92001685E-001
   4.00000000E+001   7.30337438E-001   7.16982270E-001   7.32013126E-001
   4.50000000E+001   7.65952253E-001   7.37157870E-001   7.65088462E-001
   5.00000000E+001   7.94955127E-001   7.50517453E-001   7.92811925E-001
   5.50000000E+001   8.18890504E-001   7.59124458E-001   8.16302258E-001
   6.00000000E+001   8.38856985E-001   7.64548677E-001   8.36308346E-001
   6.50000000E+001   8.55859840E-001   7.67922534E-001   8.53585472E-001
   7.00000000E+001   8.70542430E-001   7.70017418E-001   8.68621111E-001
   7.50000000E+001   8.83224394E-001   7.71330094E-001   8.81650703E-001
   8.00000000E+001   8.94372418E-001   7.72167159E-001   8.93105029E-001
   8.50000000E+001   9.04228696E-001   7.72713079E-001   9.03215964E-001
   9.00000000E+001   9.12977542E-001   7.73078165E-001   9.12169984E-001
   9.50000000E+001   9.20713464E-001   7.73328545E-001   9.20068434E-001
   1.00000000E+002   9.27623472E-001   7.73504409E-001   9.27106365E-001
   1.05000000E+002   9.33778735E-001   7.73630676E-001   9.33362021E-001
   1.10000000E+002   9.39325049E-001   7.73723148E-001   9.38987288E-001
   1.15000000E+002   9.44290285E-001   7.73792083E-001   9.44014833E-001
   1.20000000E+002   9.48783563E-001   7.73844288E-001   9.48557509E-001
   1.25000000E+002   9.52842842E-001   7.73884385E-001   9.52656183E-001
   1.30000000E+002   9.56497303E-001   7.73915573E-001   9.56342226E-001
   1.35000000E+002   9.59826056E-001   7.73940107E-001   9.59696470E-001
   1.40000000E+002   9.62853343E-001   7.73959605E-001   9.62744448E-001
   1.45000000E+002   9.65579184E-001   7.73975245E-001   9.65487186E-001
   1.50000000E+002   9.68087456E-001   7.73987898E-001   9.68009336E-001
   1.55000000E+002   9.70358260E-001   7.73998214E-001   9.70291602E-001
   1.60000000E+002   9.72454976E-001   7.74006685E-001   9.72397833E-001
   1.65000000E+002   9.74353652E-001   7.74013687E-001   9.74304451E-001
   1.70000000E+002   9.76112669E-001   7.74019510E-001   9.76070130E-001
   1.75000000E+002   9.77735975E-001   7.74024381E-001   9.77699050E-001
   1.80000000E+002   9.79213894E-001   7.74028478E-001   9.79181720E-001
   1.85000000E+002   9.80579307E-001   7.74031941E-001   9.80551173E-001
   1.90000000E+002   9.81840143E-001   7.74034881E-001   9.81815457E-001
   1.95000000E+002   9.82995220E-001   7.74037389E-001   9.82973491E-001
   2.00000000E+002   9.84064744E-001   7.74039538E-001   9.84045556E-001
   2.05000000E+002   9.85064233E-001   7.74041385E-001   9.85047240E-001
   2.10000000E+002   9.85980312E-001   7.74042980E-001   9.85965220E-001
   2.15000000E+002   9.86837440E-001   7.74044362E-001   9.86824000E-001
   2.20000000E+002   9.87633349E-001   7.74045563E-001   9.87621349E-001
   2.25000000E+002   9.88356373E-001   7.74046611E-001   9.88345632E-001
   2.30000000E+002   9.89059950E-001   7.74047527E-001   9.89050314E-001
   2.35000000E+002   9.89689584E-001   7.74048332E-001   9.89680920E-001
   2.40000000E+002   9.90286736E-001   7.74049039E-001   9.90278927E-001
   2.45000000E+002   9.90842651E-001   7.74049663E-001   9.90835600E-001
