# ./jetvheto -in n3lo-fixed-order/H125-LHC13-R04-mb-475-mt-1725-xmur050-xmuf025-log.fxd -xQ 0.5 -out benchmarks-n3lo-smallR/H125-LHC13-R04-mb-475-mt-1725-xmur050-xmuf025-xQ050-N3LO+NNLLb.R0-1.0.res -scheme b -order 2 -ptmax 500.01 -fixed_order 3 -small-r -loop-mass t+b -R0 1.0
# process = H    
# collider = pp   
# rts =  13000.000
# M   =    125.000
# muR =     62.500
# muF =     31.250
# Q   =     62.500
# p   =      5.000
# include_c1_squared =   F
# loop_mass  = t+b 
# alphas(MZ) =    0.11800
# alphas(M) =    0.11264
# alphas(muR) =    0.12516
# Rjet =      0.400
# order = NNLL
# pdf name and set = PDF4LHC15_nnlo_mc.LHgrid,    0
# matching scheme = b
# total cross sections [nb] at LO, NLOdiff, NNLOdiff, N3LOdiff =     0.012926    0.020318    0.009723    0.001827
#----------------------------------------------------------------------
# the lines that follow give the jet-veto efficiencies as a function of pt
#         pt            matched eff      resummed eff     fixed-order eff
   2.00000000E+001   4.29420856E-001   4.61897677E-001   4.15980545E-001
   2.50000000E+001   5.19048745E-001   5.38887249E-001   5.07800100E-001
   3.00000000E+001   5.90593437E-001   5.94029209E-001   5.80656478E-001
   3.50000000E+001   6.48529281E-001   6.33025989E-001   6.39756651E-001
   4.00000000E+001   6.96487552E-001   6.60156990E-001   6.88975344E-001
   4.50000000E+001   7.36859888E-001   6.78597521E-001   7.30606525E-001
   5.00000000E+001   7.70503770E-001   6.90785260E-001   7.65403404E-001
   5.50000000E+001   7.99822320E-001   6.98620139E-001   7.95769940E-001
   6.00000000E+001   8.24142850E-001   7.03543674E-001   8.20952172E-001
   6.50000000E+001   8.43782119E-001   7.06596067E-001   8.41282612E-001
   7.00000000E+001   8.62289700E-001   7.08484404E-001   8.60356605E-001
   7.50000000E+001   8.78077207E-001   7.09663011E-001   8.76584241E-001
   8.00000000E+001   8.91334881E-001   7.10411753E-001   8.90175714E-001
   8.50000000E+001   9.03617712E-001   7.10898434E-001   9.02715631E-001
   9.00000000E+001   9.14369793E-001   7.11222881E-001   9.13663383E-001
   9.50000000E+001   9.22453473E-001   7.11444758E-001   9.21894582E-001
   1.00000000E+002   9.31221358E-001   7.11600217E-001   9.30777862E-001
   1.05000000E+002   9.38060168E-001   7.11711603E-001   9.37704516E-001
   1.10000000E+002   9.44981267E-001   7.11793035E-001   9.44694592E-001
   1.15000000E+002   9.50953329E-001   7.11853653E-001   9.50720349E-001
   1.20000000E+002   9.55749167E-001   7.11899506E-001   9.55558232E-001
   1.25000000E+002   9.59912982E-001   7.11934690E-001   9.59755469E-001
   1.30000000E+002   9.64150989E-001   7.11962034E-001   9.64020346E-001
   1.35000000E+002   9.67666913E-001   7.11983531E-001   9.67557819E-001
   1.40000000E+002   9.70957342E-001   7.12000607E-001   9.70865759E-001
   1.45000000E+002   9.74006355E-001   7.12014298E-001   9.73929043E-001
   1.50000000E+002   9.76617494E-001   7.12025370E-001   9.76551883E-001
   1.55000000E+002   9.79012825E-001   7.12034394E-001   9.78956876E-001
   1.60000000E+002   9.81507700E-001   7.12041802E-001   9.81459799E-001
   1.65000000E+002   9.83356958E-001   7.12047925E-001   9.83315727E-001
   1.70000000E+002   9.84907081E-001   7.12053016E-001   9.84871440E-001
   1.75000000E+002   9.86737725E-001   7.12057274E-001   9.86706822E-001
   1.80000000E+002   9.87987594E-001   7.12060854E-001   9.87960674E-001
   1.85000000E+002   9.89409912E-001   7.12063880E-001   9.89386397E-001
   1.90000000E+002   9.90542800E-001   7.12066450E-001   9.90522177E-001
   1.95000000E+002   9.91743347E-001   7.12068641E-001   9.91725209E-001
   2.00000000E+002   9.92609320E-001   7.12070518E-001   9.92593312E-001
   2.05000000E+002   9.93455433E-001   7.12072133E-001   9.93441263E-001
   2.10000000E+002   9.94219661E-001   7.12073526E-001   9.94207082E-001
   2.15000000E+002   9.95069575E-001   7.12074733E-001   9.95058385E-001
   2.20000000E+002   9.95669155E-001   7.12075782E-001   9.95659169E-001
   2.25000000E+002   9.96357546E-001   7.12076698E-001   9.96348616E-001
   2.30000000E+002   9.96855326E-001   7.12077498E-001   9.96847320E-001
   2.35000000E+002   9.97225949E-001   7.12078200E-001   9.97218752E-001
   2.40000000E+002   9.97744551E-001   7.12078818E-001   9.97738071E-001
   2.45000000E+002   9.98166563E-001   7.12079363E-001   9.98160716E-001
