# ./jetvheto -in n3lo-fixed-order/H125-LHC13-R04-mb-475-mt-1725-xmur200-xmuf100-log.fxd -xQ 0.25 -out benchmarks-n3lo-smallR/H125-LHC13-R04-mb-475-mt-1725-xmur200-xmuf100-xQ025-N3LO+NNLLb.R0-1.5.res -scheme b -order 2 -ptmax 500.01 -fixed_order 3 -small-r -loop-mass t+b -R0 1.5
# process = H    
# collider = pp   
# rts =  13000.000
# M   =    125.000
# muR =    250.000
# muF =    125.000
# Q   =     31.250
# p   =      5.000
# include_c1_squared =   F
# loop_mass  = t+b 
# alphas(MZ) =    0.11800
# alphas(M) =    0.11264
# alphas(muR) =    0.10244
# Rjet =      0.400
# order = NNLL
# pdf name and set = PDF4LHC15_nnlo_mc.LHgrid,    0
# matching scheme = b
# total cross sections [nb] at LO, NLOdiff, NNLOdiff, N3LOdiff =     0.010243    0.014468    0.010526    0.005600
#----------------------------------------------------------------------
# the lines that follow give the jet-veto efficiencies as a function of pt
#         pt            matched eff      resummed eff     fixed-order eff
   2.00000000E+001   4.13185292E-001   5.55229486E-001   3.89818525E-001
   2.50000000E+001   4.97545768E-001   6.27885664E-001   4.86093830E-001
   3.00000000E+001   5.70208415E-001   6.70550970E-001   5.64941031E-001
   3.50000000E+001   6.29231590E-001   6.93746712E-001   6.26766390E-001
   4.00000000E+001   6.78019286E-001   7.05924112E-001   6.76837357E-001
   4.50000000E+001   7.18492617E-001   7.12357512E-001   7.17902185E-001
   5.00000000E+001   7.52956725E-001   7.15861187E-001   7.52652485E-001
   5.50000000E+001   7.82415841E-001   7.17846135E-001   7.82254482E-001
   6.00000000E+001   8.07492093E-001   7.19017026E-001   8.07403331E-001
   6.50000000E+001   8.29674501E-001   7.19734382E-001   8.29625457E-001
   7.00000000E+001   8.48576184E-001   7.20189201E-001   8.48548309E-001
   7.50000000E+001   8.64494035E-001   7.20486519E-001   8.64477541E-001
   8.00000000E+001   8.78540055E-001   7.20686232E-001   8.78530213E-001
   8.50000000E+001   8.91082340E-001   7.20823663E-001   8.91076567E-001
   9.00000000E+001   9.01974555E-001   7.20920293E-001   9.01971116E-001
   9.50000000E+001   9.11810649E-001   7.20989561E-001   9.11808698E-001
   1.00000000E+002   9.20197410E-001   7.21040081E-001   9.20196285E-001
   1.05000000E+002   9.27740458E-001   7.21077511E-001   9.27739849E-001
   1.10000000E+002   9.34469277E-001   7.21105638E-001   9.34468996E-001
   1.15000000E+002   9.40534121E-001   7.21127051E-001   9.40534037E-001
   1.20000000E+002   9.45811339E-001   7.21143545E-001   9.45811365E-001
   1.25000000E+002   9.50506558E-001   7.21156390E-001   9.50506638E-001
   1.30000000E+002   9.55022247E-001   7.21166492E-001   9.55022375E-001
   1.35000000E+002   9.59040231E-001   7.21174512E-001   9.59040379E-001
   1.40000000E+002   9.62486279E-001   7.21180934E-001   9.62486427E-001
   1.45000000E+002   9.65749684E-001   7.21186116E-001   9.65749830E-001
   1.50000000E+002   9.68565977E-001   7.21190329E-001   9.68566114E-001
   1.55000000E+002   9.71448355E-001   7.21193778E-001   9.71448489E-001
   1.60000000E+002   9.73601296E-001   7.21196620E-001   9.73601413E-001
   1.65000000E+002   9.75791768E-001   7.21198976E-001   9.75791876E-001
   1.70000000E+002   9.77736902E-001   7.21200940E-001   9.77737000E-001
   1.75000000E+002   9.79584346E-001   7.21202586E-001   9.79584436E-001
   1.80000000E+002   9.81273315E-001   7.21203973E-001   9.81273397E-001
   1.85000000E+002   9.82806122E-001   7.21205147E-001   9.82806195E-001
   1.90000000E+002   9.83992013E-001   7.21206144E-001   9.83992078E-001
   1.95000000E+002   9.85350195E-001   7.21206997E-001   9.85350253E-001
   2.00000000E+002   9.86528572E-001   7.21207727E-001   9.86528625E-001
   2.05000000E+002   9.87567239E-001   7.21208356E-001   9.87567287E-001
   2.10000000E+002   9.88509468E-001   7.21208899E-001   9.88509511E-001
   2.15000000E+002   9.89474616E-001   7.21209370E-001   9.89474655E-001
   2.20000000E+002   9.90244648E-001   7.21209780E-001   9.90244684E-001
   2.25000000E+002   9.91014715E-001   7.21210137E-001   9.91014747E-001
   2.30000000E+002   9.91727951E-001   7.21210450E-001   9.91727980E-001
   2.35000000E+002   9.92388765E-001   7.21210724E-001   9.92388792E-001
   2.40000000E+002   9.92889095E-001   7.21210966E-001   9.92889118E-001
   2.45000000E+002   9.93480167E-001   7.21211179E-001   9.93480189E-001
