# ./jetvheto -in n3lo-fixed-order/H125-LHC13-R04-heft-xmur050-xmuf050-log.fxd -xQ 0.25 -out benchmarks-n3lo-smallR/H125-LHC13-R04-heft-xmur050-xmuf050-xQ025-N3LO+NNLLb.R0-1.0.res -scheme b -order 2 -ptmax 500.01 -fixed_order 3 -small-r -R0 1.0
# process = H    
# collider = pp   
# rts =  13000.000
# M   =    125.000
# muR =     62.500
# muF =     62.500
# Q   =     31.250
# p   =      5.000
# include_c1_squared =   F
# loop_mass  = none
# alphas(MZ) =    0.11800
# alphas(M) =    0.11264
# alphas(muR) =    0.12516
# Rjet =      0.400
# order = NNLL
# pdf name and set = PDF4LHC15_nnlo_mc.LHgrid,    0
# matching scheme = b
# total cross sections [nb] at LO, NLOdiff, NNLOdiff, N3LOdiff =     0.015055    0.019611    0.008998    0.001413
#----------------------------------------------------------------------
# the lines that follow give the jet-veto efficiencies as a function of pt
#         pt            matched eff      resummed eff     fixed-order eff
   2.00000000E+001   4.39268487E-001   4.91899163E-001   4.32272620E-001
   2.50000000E+001   5.24226786E-001   5.61050378E-001   5.20076688E-001
   3.00000000E+001   5.97225950E-001   6.01998396E-001   5.95188306E-001
   3.50000000E+001   6.55706888E-001   6.24391096E-001   6.54648121E-001
   4.00000000E+001   7.01502057E-001   6.36189452E-001   7.00880952E-001
   4.50000000E+001   7.41704604E-001   6.42435436E-001   7.41355940E-001
   5.00000000E+001   7.74016529E-001   6.45841054E-001   7.73800605E-001
   5.50000000E+001   8.02186048E-001   6.47771757E-001   8.02051238E-001
   6.00000000E+001   8.25266707E-001   6.48911103E-001   8.25176712E-001
   6.50000000E+001   8.46609399E-001   6.49609301E-001   8.46550538E-001
   7.00000000E+001   8.63153377E-001   6.50052039E-001   8.63110860E-001
   7.50000000E+001   8.77924967E-001   6.50341489E-001   8.77894218E-001
   8.00000000E+001   8.91244020E-001   6.50535929E-001   8.91221610E-001
   8.50000000E+001   9.03053380E-001   6.50669737E-001   9.03036791E-001
   9.00000000E+001   9.13495257E-001   6.50763824E-001   9.13482770E-001
   9.50000000E+001   9.21863457E-001   6.50831269E-001   9.21853677E-001
   1.00000000E+002   9.29775714E-001   6.50880461E-001   9.29768082E-001
   1.05000000E+002   9.36117837E-001   6.50916907E-001   9.36111694E-001
   1.10000000E+002   9.41965718E-001   6.50944295E-001   9.41960757E-001
   1.15000000E+002   9.47460206E-001   6.50965145E-001   9.47456202E-001
   1.20000000E+002   9.52417144E-001   6.50981206E-001   9.52413885E-001
   1.25000000E+002   9.56507892E-001   6.50993713E-001   9.56505189E-001
   1.30000000E+002   9.60084473E-001   6.51003551E-001   9.60082213E-001
   1.35000000E+002   9.63660838E-001   6.51011360E-001   9.63658956E-001
   1.40000000E+002   9.66898316E-001   6.51017613E-001   9.66896738E-001
   1.45000000E+002   9.69674595E-001   6.51022659E-001   9.69673261E-001
   1.50000000E+002   9.71844072E-001   6.51026762E-001   9.71842925E-001
   1.55000000E+002   9.74324022E-001   6.51030120E-001   9.74323047E-001
   1.60000000E+002   9.76569760E-001   6.51032888E-001   9.76568926E-001
   1.65000000E+002   9.77944976E-001   6.51035182E-001   9.77944247E-001
   1.70000000E+002   9.79733309E-001   6.51037094E-001   9.79732679E-001
   1.75000000E+002   9.81408270E-001   6.51038697E-001   9.81407724E-001
   1.80000000E+002   9.82698767E-001   6.51040047E-001   9.82698288E-001
   1.85000000E+002   9.83879358E-001   6.51041190E-001   9.83878937E-001
   1.90000000E+002   9.85097736E-001   6.51042162E-001   9.85097366E-001
   1.95000000E+002   9.86220930E-001   6.51042992E-001   9.86220604E-001
   2.00000000E+002   9.87223521E-001   6.51043703E-001   9.87223233E-001
   2.05000000E+002   9.88036912E-001   6.51044316E-001   9.88036656E-001
   2.10000000E+002   9.88861722E-001   6.51044845E-001   9.88861494E-001
   2.15000000E+002   9.89504481E-001   6.51045303E-001   9.89504277E-001
   2.20000000E+002   9.90408263E-001   6.51045702E-001   9.90408081E-001
   2.25000000E+002   9.90902957E-001   6.51046050E-001   9.90902794E-001
   2.30000000E+002   9.91502366E-001   6.51046354E-001   9.91502219E-001
   2.35000000E+002   9.91961401E-001   6.51046621E-001   9.91961268E-001
   2.40000000E+002   9.92454168E-001   6.51046857E-001   9.92454049E-001
   2.45000000E+002   9.93024262E-001   6.51047064E-001   9.93024154E-001
