# ./jetvheto -in n3lo-fixed-order/H125-LHC13-R04-heft-xmur100-xmuf100-log.fxd -xQ 1.00 -out benchmarks-n3lo-smallR/H125-LHC13-R04-heft-xmur100-xmuf100-xQ100-N3LO+NNLLa.res -scheme a -order 2 -ptmax 500.01 -fixed_order 3
# process = H    
# collider = pp   
# rts =  13000.000
# M   =    125.000
# muR =    125.000
# muF =    125.000
# Q   =    125.000
# p   =      5.000
# include_c1_squared =   F
# loop_mass  = none
# alphas(MZ) =    0.11800
# alphas(M) =    0.11264
# alphas(muR) =    0.11264
# Rjet =      0.400
# order = NNLL
# pdf name and set = PDF4LHC15_nnlo_mc.LHgrid,    0
# matching scheme = a
# total cross sections [nb] at LO, NLOdiff, NNLOdiff, N3LOdiff =     0.012945    0.016716    0.010146    0.003834
#----------------------------------------------------------------------
# the lines that follow give the jet-veto efficiencies as a function of pt
#         pt            matched eff      resummed eff     fixed-order eff
   2.00000000E+001   4.72841207E-001   5.76765964E-001   4.60774143E-001
   2.50000000E+001   5.62213677E-001   6.67091964E-001   5.45786875E-001
   3.00000000E+001   6.36976368E-001   7.30855913E-001   6.17068533E-001
   3.50000000E+001   6.94869868E-001   7.75533258E-001   6.72113648E-001
   4.00000000E+001   7.41295267E-001   8.06393501E-001   7.16667414E-001
   4.50000000E+001   7.78434939E-001   8.27120819E-001   7.52873009E-001
   5.00000000E+001   8.09380008E-001   8.40344113E-001   7.83562730E-001
   5.50000000E+001   8.35342421E-001   8.47977876E-001   8.09784074E-001
   6.00000000E+001   8.56716957E-001   8.51429224E-001   8.31871310E-001
   6.50000000E+001   8.75505856E-001   8.51753686E-001   8.51599627E-001
   7.00000000E+001   8.90890249E-001   8.49765071E-001   8.68219188E-001
   7.50000000E+001   9.03204996E-001   8.46099418E-001   8.82015993E-001
   8.00000000E+001   9.13750245E-001   8.41263815E-001   8.94125116E-001
   8.50000000E+001   9.23124024E-001   8.35666234E-001   9.05069202E-001
   9.00000000E+001   9.30871435E-001   8.29636911E-001   9.14424589E-001
   9.50000000E+001   9.37884106E-001   8.23439459E-001   9.22983790E-001
   1.00000000E+002   9.43494238E-001   8.17282837E-001   9.30122626E-001
   1.05000000E+002   9.48461929E-001   8.11327262E-001   9.36529413E-001
   1.10000000E+002   9.52914347E-001   8.05689281E-001   9.42317122E-001
   1.15000000E+002   9.56866330E-001   8.00448028E-001   9.47498999E-001
   1.20000000E+002   9.60255284E-001   7.95649447E-001   9.52012685E-001
   1.25000000E+002   9.63138310E-001   7.91312387E-001   9.55913202E-001
   1.30000000E+002   9.66147225E-001   7.87434477E-001   9.59813209E-001
   1.35000000E+002   9.68795417E-001   7.83997780E-001   9.63254687E-001
   1.40000000E+002   9.70963046E-001   7.80973889E-001   9.66126784E-001
   1.45000000E+002   9.73113208E-001   7.78328222E-001   9.68889494E-001
   1.50000000E+002   9.74911915E-001   7.76023431E-001   9.71225357E-001
   1.55000000E+002   9.76958864E-001   7.74021860E-001   9.73731807E-001
   1.60000000E+002   9.78262376E-001   7.72287248E-001   9.75444349E-001
   1.65000000E+002   9.79751903E-001   7.70785851E-001   9.77283286E-001
   1.70000000E+002   9.81069708E-001   7.69486984E-001   9.78904621E-001
   1.75000000E+002   9.82389378E-001   7.68363233E-001   9.80485847E-001
   1.80000000E+002   9.83617879E-001   7.67390431E-001   9.81941189E-001
   1.85000000E+002   9.84730820E-001   7.66547487E-001   9.83251126E-001
   1.90000000E+002   9.85476948E-001   7.65816131E-001   9.84170523E-001
   1.95000000E+002   9.86520531E-001   7.65180623E-001   9.85362313E-001
   2.00000000E+002   9.87411964E-001   7.64627456E-001   9.86383405E-001
   2.05000000E+002   9.88175088E-001   7.64145066E-001   9.87260065E-001
   2.10000000E+002   9.88872028E-001   7.63723574E-001   9.88056295E-001
   2.15000000E+002   9.89663608E-001   7.63354545E-001   9.88934225E-001
   2.20000000E+002   9.90232601E-001   7.63030779E-001   9.89579737E-001
   2.25000000E+002   9.90847024E-001   7.62746128E-001   9.90261153E-001
   2.30000000E+002   9.91427740E-001   7.62495340E-001   9.90900921E-001
   2.35000000E+002   9.91976443E-001   7.62273922E-001   9.91501805E-001
   2.40000000E+002   9.92351391E-001   7.62078027E-001   9.91923260E-001
   2.45000000E+002   9.92860267E-001   7.61904355E-001   9.92473011E-001
