# ./jetvheto -in n3lo-fixed-order/H125-LHC13-R04-mb-475-mt-1725-xmur025-xmuf025-log.fxd -xQ 0.5 -out benchmarks-n3lo-smallR/H125-LHC13-R04-mb-475-mt-1725-xmur025-xmuf025-xQ050-NNLO+NNLLb.R0-0.5.res -scheme b -order 2 -ptmax 500.01 -fixed_order 2 -small-r -loop-mass t+b -R0 0.5
# process = H    
# collider = pp   
# rts =  13000.000
# M   =    125.000
# muR =     31.250
# muF =     31.250
# Q   =     62.500
# p   =      5.000
# include_c1_squared =   F
# loop_mass  = t+b 
# alphas(MZ) =    0.11800
# alphas(M) =    0.11264
# alphas(muR) =    0.14091
# Rjet =      0.400
# order = NNLL
# pdf name and set = PDF4LHC15_nnlo_mc.LHgrid,    0
# matching scheme = b
# total cross sections [nb] at LO, NLOdiff, NNLOdiff, N3LOdiff =     0.016156    0.025248    0.006043   -0.002471
#----------------------------------------------------------------------
# the lines that follow give the jet-veto efficiencies as a function of pt
#         pt            matched eff      resummed eff     fixed-order eff
   2.00000000E+001   4.22640332E-001   4.57087050E-001   3.28893509E-001
   2.50000000E+001   5.04573814E-001   5.24896261E-001   4.30904941E-001
   3.00000000E+001   5.70932355E-001   5.72127879E-001   5.12833977E-001
   3.50000000E+001   6.25923292E-001   6.04596472E-001   5.80181023E-001
   4.00000000E+001   6.71735454E-001   6.26485849E-001   6.35905108E-001
   4.50000000E+001   7.10507555E-001   6.40816907E-001   6.82675043E-001
   5.00000000E+001   7.43603960E-001   6.49857245E-001   7.22156956E-001
   5.50000000E+001   7.72106663E-001   6.55334530E-001   7.55714207E-001
   6.00000000E+001   7.97016788E-001   6.58525781E-001   7.84550979E-001
   6.50000000E+001   8.18914815E-001   6.60323522E-001   8.09451630E-001
   7.00000000E+001   8.38416912E-001   6.61310747E-001   8.31222556E-001
   7.50000000E+001   8.55377678E-001   6.61843792E-001   8.49887242E-001
   8.00000000E+001   8.70679898E-001   6.62128922E-001   8.66464336E-001
   8.50000000E+001   8.84324690E-001   6.62280635E-001   8.81063473E-001
   9.00000000E+001   8.96430601E-001   6.62361003E-001   8.93887126E-001
   9.50000000E+001   9.07075181E-001   6.62403258E-001   9.05074588E-001
   1.00000000E+002   9.16617703E-001   6.62425125E-001   9.15030625E-001
   1.05000000E+002   9.25225899E-001   6.62436073E-001   9.23956070E-001
   1.10000000E+002   9.32880755E-001   6.62441188E-001   9.31856548E-001
   1.15000000E+002   9.39802308E-001   6.62443212E-001   9.38969708E-001
   1.20000000E+002   9.46027012E-001   6.62443633E-001   9.45345060E-001
   1.25000000E+002   9.51540820E-001   6.62443256E-001   9.50978318E-001
   1.30000000E+002   9.56551604E-001   6.62442518E-001   9.56084587E-001
   1.35000000E+002   9.61056583E-001   6.62441651E-001   9.60666440E-001
   1.40000000E+002   9.65087833E-001   6.62440775E-001   9.64759970E-001
   1.45000000E+002   9.68812112E-001   6.62439948E-001   9.68535035E-001
   1.50000000E+002   9.72127616E-001   6.62439198E-001   9.71892230E-001
   1.55000000E+002   9.75128966E-001   6.62438530E-001   9.74928007E-001
   1.60000000E+002   9.77872219E-001   6.62437944E-001   9.77699851E-001
   1.65000000E+002   9.80349028E-001   6.62437433E-001   9.80200538E-001
   1.70000000E+002   9.82566578E-001   6.62436990E-001   9.82438117E-001
   1.75000000E+002   9.84587608E-001   6.62436606E-001   9.84476043E-001
   1.80000000E+002   9.86406311E-001   6.62436274E-001   9.86309053E-001
   1.85000000E+002   9.88036455E-001   6.62435987E-001   9.87951365E-001
   1.90000000E+002   9.89553305E-001   6.62435739E-001   9.89478609E-001
   1.95000000E+002   9.90938244E-001   6.62435523E-001   9.90872460E-001
   2.00000000E+002   9.92177391E-001   6.62435336E-001   9.92119277E-001
   2.05000000E+002   9.93324776E-001   6.62435174E-001   9.93273289E-001
   2.10000000E+002   9.94371042E-001   6.62435032E-001   9.94325298E-001
   2.15000000E+002   9.95273384E-001   6.62434908E-001   9.95232634E-001
   2.20000000E+002   9.96132055E-001   6.62434799E-001   9.96095662E-001
   2.25000000E+002   9.96905468E-001   6.62434704E-001   9.96872886E-001
   2.30000000E+002   9.97586062E-001   6.62434620E-001   9.97556823E-001
   2.35000000E+002   9.98220720E-001   6.62434546E-001   9.98194422E-001
   2.40000000E+002   9.98775518E-001   6.62434481E-001   9.98751815E-001
   2.45000000E+002   9.99277273E-001   6.62434423E-001   9.99255864E-001
