# ./jetvheto -in n3lo-fixed-order/H125-LHC13-R04-heft-xmur100-xmuf100-log.fxd -xQ 0.75 -out benchmarks-n3lo-smallR/H125-LHC13-R04-heft-xmur100-xmuf100-xQ075-N3LO+NNLLa.R0-1.5.res -scheme a -order 2 -ptmax 500.01 -fixed_order 3 -small-r -R0 1.5
# process = H    
# collider = pp   
# rts =  13000.000
# M   =    125.000
# muR =    125.000
# muF =    125.000
# Q   =     93.750
# p   =      5.000
# include_c1_squared =   F
# loop_mass  = none
# alphas(MZ) =    0.11800
# alphas(M) =    0.11264
# alphas(muR) =    0.11264
# Rjet =      0.400
# order = NNLL
# pdf name and set = PDF4LHC15_nnlo_mc.LHgrid,    0
# matching scheme = a
# total cross sections [nb] at LO, NLOdiff, NNLOdiff, N3LOdiff =     0.012945    0.016716    0.010146    0.003834
#----------------------------------------------------------------------
# the lines that follow give the jet-veto efficiencies as a function of pt
#         pt            matched eff      resummed eff     fixed-order eff
   2.00000000E+001   4.77569614E-001   5.55273531E-001   4.60774143E-001
   2.50000000E+001   5.63492746E-001   6.38136983E-001   5.45786875E-001
   3.00000000E+001   6.35263186E-001   6.96645874E-001   6.17068533E-001
   3.50000000E+001   6.90865404E-001   7.37643801E-001   6.72113648E-001
   4.00000000E+001   7.35480464E-001   7.65945305E-001   7.16667414E-001
   4.50000000E+001   7.71232695E-001   7.84959359E-001   7.52873009E-001
   5.00000000E+001   8.01061860E-001   7.97125915E-001   7.83562730E-001
   5.50000000E+001   8.26131139E-001   8.04250382E-001   8.09784074E-001
   6.00000000E+001   8.46855067E-001   8.07701854E-001   8.31871310E-001
   6.50000000E+001   8.65140624E-001   8.08543561E-001   8.51599627E-001
   7.00000000E+001   8.80257620E-001   8.07609875E-001   8.68219188E-001
   7.50000000E+001   8.92549118E-001   8.05552641E-001   8.82015993E-001
   8.00000000E+001   9.03236858E-001   8.02873318E-001   8.94125116E-001
   8.50000000E+001   9.12883873E-001   7.99942679E-001   9.05069202E-001
   9.00000000E+001   9.21065078E-001   7.97019430E-001   9.14424589E-001
   9.50000000E+001   9.28599964E-001   7.94268047E-001   9.22983790E-001
   1.00000000E+002   9.34843337E-001   7.91779513E-001   9.30122626E-001
   1.05000000E+002   9.40489012E-001   7.89591454E-001   9.36529413E-001
   1.10000000E+002   9.45636448E-001   7.87706045E-001   9.42317122E-001
   1.15000000E+002   9.50282374E-001   7.86104417E-001   9.47498999E-001
   1.20000000E+002   9.54348374E-001   7.84756943E-001   9.52012685E-001
   1.25000000E+002   9.57876157E-001   7.83630326E-001   9.55913202E-001
   1.30000000E+002   9.61470161E-001   7.82691738E-001   9.59813209E-001
   1.35000000E+002   9.64656997E-001   7.81911033E-001   9.63254687E-001
   1.40000000E+002   9.67316373E-001   7.81261702E-001   9.66126784E-001
   1.45000000E+002   9.69902858E-001   7.80721075E-001   9.68889494E-001
   1.50000000E+002   9.72091141E-001   7.80270117E-001   9.71225357E-001
   1.55000000E+002   9.74475411E-001   7.79893035E-001   9.73731807E-001
   1.60000000E+002   9.76083721E-001   7.79576824E-001   9.75444349E-001
   1.65000000E+002   9.77835725E-001   7.79310828E-001   9.77283286E-001
   1.70000000E+002   9.79383486E-001   7.79086333E-001   9.78904621E-001
   1.75000000E+002   9.80902554E-001   7.78896216E-001   9.80485847E-001
   1.80000000E+002   9.82305003E-001   7.78734660E-001   9.81941189E-001
   1.85000000E+002   9.83569754E-001   7.78596900E-001   9.83251126E-001
   1.90000000E+002   9.84450115E-001   7.78479029E-001   9.84170523E-001
   1.95000000E+002   9.85608752E-001   7.78377838E-001   9.85362313E-001
   2.00000000E+002   9.86601177E-001   7.78290679E-001   9.86383405E-001
   2.05000000E+002   9.87452989E-001   7.78215366E-001   9.87260065E-001
   2.10000000E+002   9.88227660E-001   7.78150085E-001   9.88056295E-001
   2.15000000E+002   9.89086929E-001   7.78093328E-001   9.88934225E-001
   2.20000000E+002   9.89716051E-001   7.78043838E-001   9.89579737E-001
   2.25000000E+002   9.90383173E-001   7.78000560E-001   9.90261153E-001
   2.30000000E+002   9.91010400E-001   7.77962612E-001   9.90900921E-001
   2.35000000E+002   9.91600251E-001   7.77929247E-001   9.91501805E-001
   2.40000000E+002   9.92011924E-001   7.77899837E-001   9.91923260E-001
   2.45000000E+002   9.92553085E-001   7.77873849E-001   9.92473011E-001
