# ./jetvheto -in n3lo-fixed-order/H125-LHC13-R04-mb-0-mt-1725-xmur100-xmuf100-log.fxd -xQ 0.75 -out benchmarks-n3lo-smallR/H125-LHC13-R04-mb-0-mt-1725-xmur100-xmuf100-xQ075-NNLO+NNLLb.R0-1.0.res -scheme b -order 2 -ptmax 500.01 -small-r -fixed_order 2 -loop-mass t -R0 1.0
# process = H    
# collider = pp   
# rts =  13000.000
# M   =    125.000
# muR =    125.000
# muF =    125.000
# Q   =     93.750
# p   =      5.000
# include_c1_squared =   F
# loop_mass  = t   
# alphas(MZ) =    0.11800
# alphas(M) =    0.11264
# alphas(muR) =    0.11264
# Rjet =      0.400
# order = NNLL
# pdf name and set = PDF4LHC15_nnlo_mc.LHgrid,    0
# matching scheme = b
# total cross sections [nb] at LO, NLOdiff, NNLOdiff, N3LOdiff =     0.013801    0.017514    0.010146    0.003834
#----------------------------------------------------------------------
# the lines that follow give the jet-veto efficiencies as a function of pt
#         pt            matched eff      resummed eff     fixed-order eff
   2.00000000E+001   4.47140265E-001   5.52866183E-001   3.54033455E-001
   2.50000000E+001   5.32213053E-001   6.38654066E-001   4.61286580E-001
   3.00000000E+001   6.00405036E-001   6.99454453E-001   5.43462220E-001
   3.50000000E+001   6.55893521E-001   7.42216089E-001   6.08508831E-001
   4.00000000E+001   7.01539337E-001   7.71866384E-001   6.61203589E-001
   4.50000000E+001   7.39207063E-001   7.91908272E-001   7.04404447E-001
   5.00000000E+001   7.70733116E-001   8.04854845E-001   7.40494892E-001
   5.50000000E+001   7.97213898E-001   8.12567727E-001   7.70889733E-001
   6.00000000E+001   8.19763942E-001   8.16459384E-001   7.96874542E-001
   6.50000000E+001   8.39041600E-001   8.17626900E-001   8.19206785E-001
   7.00000000E+001   8.55510632E-001   8.16931357E-001   8.38409214E-001
   7.50000000E+001   8.69898517E-001   8.15045781E-001   8.55230292E-001
   8.00000000E+001   8.82474027E-001   8.12488446E-001   8.69962422E-001
   8.50000000E+001   8.93437559E-001   8.09643331E-001   8.82823656E-001
   9.00000000E+001   9.03175306E-001   8.06779338E-001   8.94209219E-001
   9.50000000E+001   9.11777587E-001   8.04068633E-001   9.04230001E-001
   1.00000000E+002   9.19508173E-001   8.01607846E-001   9.13167919E-001
   1.05000000E+002   9.26455230E-001   7.99438655E-001   9.21134551E-001
   1.10000000E+002   9.32635744E-001   7.97566077E-001   9.28171457E-001
   1.15000000E+002   9.38303856E-001   7.95973200E-001   9.34553636E-001
   1.20000000E+002   9.43399607E-001   7.94631727E-001   9.40244216E-001
   1.25000000E+002   9.48050757E-001   7.93509255E-001   9.45389469E-001
   1.30000000E+002   9.52293336E-001   7.92573556E-001   9.50042546E-001
   1.35000000E+002   9.56137881E-001   7.91794885E-001   9.54228420E-001
   1.40000000E+002   9.59638290E-001   7.91147003E-001   9.58013167E-001
   1.45000000E+002   9.62880746E-001   7.90607420E-001   9.61492620E-001
   1.50000000E+002   9.65785181E-001   7.90157224E-001   9.64595577E-001
   1.55000000E+002   9.68488111E-001   7.89780703E-001   9.67464933E-001
   1.60000000E+002   9.70968049E-001   7.89464913E-001   9.70084916E-001
   1.65000000E+002   9.73220475E-001   7.89199235E-001   9.72455647E-001
   1.70000000E+002   9.75298994E-001   7.88974983E-001   9.74634361E-001
   1.75000000E+002   9.77171749E-001   7.88785055E-001   9.76592344E-001
   1.80000000E+002   9.78915331E-001   7.88623646E-001   9.78408580E-001
   1.85000000E+002   9.80500412E-001   7.88486003E-001   9.80055856E-001
   1.90000000E+002   9.81973001E-001   7.88368225E-001   9.81581823E-001
   1.95000000E+002   9.83338020E-001   7.88267109E-001   9.82992805E-001
   2.00000000E+002   9.84576471E-001   7.88180012E-001   9.84270986E-001
   2.05000000E+002   9.85735694E-001   7.88104749E-001   9.85464627E-001
   2.10000000E+002   9.86784472E-001   7.88039510E-001   9.86543334E-001
   2.15000000E+002   9.87742442E-001   7.87982788E-001   9.87527400E-001
   2.20000000E+002   9.88643145E-001   7.87933327E-001   9.88450903E-001
   2.25000000E+002   9.89467863E-001   7.87890074E-001   9.89295609E-001
   2.30000000E+002   9.90232515E-001   7.87852147E-001   9.90077825E-001
   2.35000000E+002   9.90950873E-001   7.87818800E-001   9.90811652E-001
   2.40000000E+002   9.91595443E-001   7.87789406E-001   9.91469891E-001
   2.45000000E+002   9.92202674E-001   7.87763431E-001   9.92089219E-001
