# ./jetvheto -in n3lo-fixed-order/H125-LHC13-R04-mb-475-mt-1725-xmur050-xmuf025-log.fxd -xQ 0.5 -out benchmarks-n3lo-smallR/H125-LHC13-R04-mb-475-mt-1725-xmur050-xmuf025-xQ050-NNLO+NNLLa.R0-2.0.res -scheme a -order 2 -ptmax 500.01 -fixed_order 2 -small-r -loop-mass t+b -R0 2.0
# process = H    
# collider = pp   
# rts =  13000.000
# M   =    125.000
# muR =     62.500
# muF =     31.250
# Q   =     62.500
# p   =      5.000
# include_c1_squared =   F
# loop_mass  = t+b 
# alphas(MZ) =    0.11800
# alphas(M) =    0.11264
# alphas(muR) =    0.12516
# Rjet =      0.400
# order = NNLL
# pdf name and set = PDF4LHC15_nnlo_mc.LHgrid,    0
# matching scheme = a
# total cross sections [nb] at LO, NLOdiff, NNLOdiff, N3LOdiff =     0.012926    0.020318    0.009723    0.001827
#----------------------------------------------------------------------
# the lines that follow give the jet-veto efficiencies as a function of pt
#         pt            matched eff      resummed eff     fixed-order eff
   2.00000000E+001   4.52015145E-001   4.74615887E-001   4.49376256E-001
   2.50000000E+001   5.38105543E-001   5.48346956E-001   5.34025121E-001
   3.00000000E+001   6.06744371E-001   6.00967089E-001   6.00744622E-001
   3.50000000E+001   6.62341327E-001   6.38065601E-001   6.55033276E-001
   4.00000000E+001   7.07560368E-001   6.63788846E-001   6.99725943E-001
   4.50000000E+001   7.44746172E-001   6.81198091E-001   7.37098941E-001
   5.00000000E+001   7.75649006E-001   6.92639734E-001   7.68680039E-001
   5.50000000E+001   8.01521580E-001   6.99941410E-001   7.95502115E-001
   6.00000000E+001   8.23573145E-001   7.04487706E-001   8.18572628E-001
   6.50000000E+001   8.42585689E-001   7.07274850E-001   8.38542465E-001
   7.00000000E+001   8.59256943E-001   7.08976950E-001   8.56043590E-001
   7.50000000E+001   8.73651981E-001   7.10024393E-001   8.71122230E-001
   8.00000000E+001   8.86508637E-001   7.10680129E-001   8.84524140E-001
   8.50000000E+001   8.97934834E-001   7.11100241E-001   8.96376665E-001
   9.00000000E+001   9.08052582E-001   7.11376521E-001   9.06824852E-001
   9.50000000E+001   9.16965778E-001   7.11563135E-001   9.15993237E-001
   1.00000000E+002   9.24947821E-001   7.11692470E-001   9.24172569E-001
   1.05000000E+002   9.32157084E-001   7.11784272E-001   9.31534780E-001
   1.10000000E+002   9.38579930E-001   7.11850857E-001   9.38076899E-001
   1.15000000E+002   9.44396880E-001   7.11900095E-001   9.43987376E-001
   1.20000000E+002   9.49657573E-001   7.11937137E-001   9.49321865E-001
   1.25000000E+002   9.54354151E-001   7.11965431E-001   9.54077090E-001
   1.30000000E+002   9.58618095E-001   7.11987339E-001   9.58388001E-001
   1.35000000E+002   9.62460123E-001   7.12004509E-001   9.62267886E-001
   1.40000000E+002   9.65925886E-001   7.12018113E-001   9.65764337E-001
   1.45000000E+002   9.69132535E-001   7.12028998E-001   9.68996025E-001
   1.50000000E+002   9.72012827E-001   7.12037786E-001   9.71896874E-001
   1.55000000E+002   9.74633471E-001   7.12044938E-001   9.74534494E-001
   1.60000000E+002   9.77035016E-001   7.12050802E-001   9.76950138E-001
   1.65000000E+002   9.79209369E-001   7.12055644E-001   9.79136265E-001
   1.70000000E+002   9.81180309E-001   7.12059667E-001   9.81117078E-001
   1.75000000E+002   9.82975193E-001   7.12063029E-001   9.82920289E-001
   1.80000000E+002   9.84605158E-001   7.12065854E-001   9.84557304E-001
   1.85000000E+002   9.86084924E-001   7.12068241E-001   9.86043063E-001
   1.90000000E+002   9.87459772E-001   7.12070266E-001   9.87423030E-001
   1.95000000E+002   9.88719462E-001   7.12071993E-001   9.88687110E-001
   2.00000000E+002   9.89863636E-001   7.12073472E-001   9.89835060E-001
   2.05000000E+002   9.90921756E-001   7.12074744E-001   9.90896442E-001
   2.10000000E+002   9.91890868E-001   7.12075841E-001   9.91868380E-001
   2.15000000E+002   9.92745869E-001   7.12076791E-001   9.92725838E-001
   2.20000000E+002   9.93554824E-001   7.12077617E-001   9.93536937E-001
   2.25000000E+002   9.94290066E-001   7.12078337E-001   9.94274053E-001
   2.30000000E+002   9.94951882E-001   7.12078967E-001   9.94937514E-001
   2.35000000E+002   9.95570138E-001   7.12079520E-001   9.95557216E-001
   2.40000000E+002   9.96119084E-001   7.12080006E-001   9.96107437E-001
   2.45000000E+002   9.96620794E-001   7.12080435E-001   9.96610275E-001
