# ./jetvheto -in n3lo-fixed-order/H125-LHC13-R04-mb-475-mt-1725-xmur100-xmuf200-log.fxd -xQ 0.0625 -out benchmarks-n3lo-smallR/H125-LHC13-R04-mb-475-mt-1725-xmur100-xmuf200-xQ0625-N3LO+NNLLa.res -scheme a -order 2 -ptmax 500.01 -fixed_order 3 -loop-mass t+b
# process = H    
# collider = pp   
# rts =  13000.000
# M   =    125.000
# muR =    125.000
# muF =    250.000
# Q   =      7.812
# p   =      5.000
# include_c1_squared =   F
# loop_mass  = t+b 
# alphas(MZ) =    0.11800
# alphas(M) =    0.11264
# alphas(muR) =    0.11264
# Rjet =      0.400
# order = NNLL
# pdf name and set = PDF4LHC15_nnlo_mc.LHgrid,    0
# matching scheme = a
# total cross sections [nb] at LO, NLOdiff, NNLOdiff, N3LOdiff =     0.012791    0.017144    0.009991    0.003297
#----------------------------------------------------------------------
# the lines that follow give the jet-veto efficiencies as a function of pt
#         pt            matched eff      resummed eff     fixed-order eff
   2.00000000E+001   4.44298158E-001   2.89575695E-001   4.44294678E-001
   2.50000000E+001   5.34678075E-001   2.90089471E-001   5.34693761E-001
   3.00000000E+001   6.03742979E-001   2.90239920E-001   6.03754500E-001
   3.50000000E+001   6.60759498E-001   2.90294314E-001   6.60767062E-001
   4.00000000E+001   7.07307342E-001   2.90317138E-001   7.07312178E-001
   4.50000000E+001   7.44535771E-001   2.90327837E-001   7.44538846E-001
   5.00000000E+001   7.77952512E-001   2.90333301E-001   7.77954575E-001
   5.50000000E+001   8.04707411E-001   2.90336288E-001   8.04708800E-001
   6.00000000E+001   8.27610449E-001   2.90338013E-001   8.27611409E-001
   6.50000000E+001   8.46993108E-001   2.90339058E-001   8.46993784E-001
   7.00000000E+001   8.64889895E-001   2.90339715E-001   8.64890386E-001
   7.50000000E+001   8.79423699E-001   2.90340142E-001   8.79424059E-001
   8.00000000E+001   8.92038723E-001   2.90340428E-001   8.92038991E-001
   8.50000000E+001   9.03366796E-001   2.90340625E-001   9.03366999E-001
   9.00000000E+001   9.12911662E-001   2.90340763E-001   9.12911817E-001
   9.50000000E+001   9.22057400E-001   2.90340862E-001   9.22057521E-001
   1.00000000E+002   9.29636962E-001   2.90340934E-001   9.29637057E-001
   1.05000000E+002   9.36248604E-001   2.90340987E-001   9.36248679E-001
   1.10000000E+002   9.41910745E-001   2.90341027E-001   9.41910806E-001
   1.15000000E+002   9.47415836E-001   2.90341058E-001   9.47415885E-001
   1.20000000E+002   9.52428374E-001   2.90341081E-001   9.52428414E-001
   1.25000000E+002   9.56461080E-001   2.90341099E-001   9.56461113E-001
   1.30000000E+002   9.60396395E-001   2.90341114E-001   9.60396422E-001
   1.35000000E+002   9.63680287E-001   2.90341125E-001   9.63680309E-001
   1.40000000E+002   9.67121588E-001   2.90341134E-001   9.67121607E-001
   1.45000000E+002   9.69712243E-001   2.90341142E-001   9.69712259E-001
   1.50000000E+002   9.72344822E-001   2.90341148E-001   9.72344836E-001
   1.55000000E+002   9.74670217E-001   2.90341152E-001   9.74670228E-001
   1.60000000E+002   9.76661718E-001   2.90341156E-001   9.76661728E-001
   1.65000000E+002   9.78355124E-001   2.90341160E-001   9.78355133E-001
   1.70000000E+002   9.80277126E-001   2.90341163E-001   9.80277133E-001
   1.75000000E+002   9.81776517E-001   2.90341165E-001   9.81776524E-001
   1.80000000E+002   9.83507156E-001   2.90341167E-001   9.83507162E-001
   1.85000000E+002   9.84622266E-001   2.90341169E-001   9.84622271E-001
   1.90000000E+002   9.85821673E-001   2.90341170E-001   9.85821678E-001
   1.95000000E+002   9.86871687E-001   2.90341171E-001   9.86871691E-001
   2.00000000E+002   9.88110184E-001   2.90341172E-001   9.88110187E-001
   2.05000000E+002   9.88864056E-001   2.90341173E-001   9.88864059E-001
   2.10000000E+002   9.89595030E-001   2.90341174E-001   9.89595033E-001
   2.15000000E+002   9.90440352E-001   2.90341175E-001   9.90440354E-001
   2.20000000E+002   9.91225532E-001   2.90341175E-001   9.91225534E-001
   2.25000000E+002   9.91792919E-001   2.90341176E-001   9.91792921E-001
   2.30000000E+002   9.92344918E-001   2.90341176E-001   9.92344919E-001
   2.35000000E+002   9.92946380E-001   2.90341176E-001   9.92946382E-001
   2.40000000E+002   9.93465483E-001   2.90341177E-001   9.93465484E-001
   2.45000000E+002   9.93969543E-001   2.90341177E-001   9.93969545E-001
