# ./jetvheto -in n3lo-fixed-order/H125-LHC13-R04-mb-0-mt-1725-xmur100-xmuf100-log.fxd -xQ 0.125 -out benchmarks-n3lo-smallR/H125-LHC13-R04-mb-0-mt-1725-xmur100-xmuf100-xQ125-NNLO+NNLLb.R0-1.5.res -scheme b -order 2 -ptmax 500.01 -small-r -fixed_order 2 -loop-mass t -R0 1.5
# process = H    
# collider = pp   
# rts =  13000.000
# M   =    125.000
# muR =    125.000
# muF =    125.000
# Q   =     15.625
# p   =      5.000
# include_c1_squared =   F
# loop_mass  = t   
# alphas(MZ) =    0.11800
# alphas(M) =    0.11264
# alphas(muR) =    0.11264
# Rjet =      0.400
# order = NNLL
# pdf name and set = PDF4LHC15_nnlo_mc.LHgrid,    0
# matching scheme = b
# total cross sections [nb] at LO, NLOdiff, NNLOdiff, N3LOdiff =     0.013801    0.017514    0.010146    0.003834
#----------------------------------------------------------------------
# the lines that follow give the jet-veto efficiencies as a function of pt
#         pt            matched eff      resummed eff     fixed-order eff
   2.00000000E+001   3.64398807E-001   5.19024463E-001   3.54033455E-001
   2.50000000E+001   4.64284168E-001   5.34763949E-001   4.61286580E-001
   3.00000000E+001   5.44457624E-001   5.39883689E-001   5.43462220E-001
   3.50000000E+001   6.08880618E-001   5.41800989E-001   6.08508831E-001
   4.00000000E+001   6.61355143E-001   5.42616583E-001   6.61203589E-001
   4.50000000E+001   7.04470273E-001   5.43001204E-001   7.04404447E-001
   5.00000000E+001   7.40524641E-001   5.43198180E-001   7.40494892E-001
   5.50000000E+001   7.70903420E-001   5.43306019E-001   7.70889733E-001
   6.00000000E+001   7.96880735E-001   5.43368387E-001   7.96874542E-001
   6.50000000E+001   8.19209401E-001   5.43406147E-001   8.19206785E-001
   7.00000000E+001   8.38410110E-001   5.43429911E-001   8.38409214E-001
   7.50000000E+001   8.55230367E-001   5.43445373E-001   8.55230292E-001
   8.00000000E+001   8.69962121E-001   5.43455727E-001   8.69962422E-001
   8.50000000E+001   8.82823207E-001   5.43462836E-001   8.82823656E-001
   9.00000000E+001   8.94208731E-001   5.43467827E-001   8.94209219E-001
   9.50000000E+001   9.04229528E-001   5.43471402E-001   9.04230001E-001
   1.00000000E+002   9.13167485E-001   5.43474007E-001   9.13167919E-001
   1.05000000E+002   9.21134163E-001   5.43475935E-001   9.21134551E-001
   1.10000000E+002   9.28171116E-001   5.43477384E-001   9.28171457E-001
   1.15000000E+002   9.34553339E-001   5.43478487E-001   9.34553636E-001
   1.20000000E+002   9.40243958E-001   5.43479336E-001   9.40244216E-001
   1.25000000E+002   9.45389247E-001   5.43479997E-001   9.45389469E-001
   1.30000000E+002   9.50042354E-001   5.43480517E-001   9.50042546E-001
   1.35000000E+002   9.54228254E-001   5.43480930E-001   9.54228420E-001
   1.40000000E+002   9.58013023E-001   5.43481260E-001   9.58013167E-001
   1.45000000E+002   9.61492496E-001   5.43481527E-001   9.61492620E-001
   1.50000000E+002   9.64595470E-001   5.43481744E-001   9.64595577E-001
   1.55000000E+002   9.67464839E-001   5.43481921E-001   9.67464933E-001
   1.60000000E+002   9.70084834E-001   5.43482068E-001   9.70084916E-001
   1.65000000E+002   9.72455576E-001   5.43482189E-001   9.72455647E-001
   1.70000000E+002   9.74634298E-001   5.43482290E-001   9.74634361E-001
   1.75000000E+002   9.76592289E-001   5.43482374E-001   9.76592344E-001
   1.80000000E+002   9.78408531E-001   5.43482446E-001   9.78408580E-001
   1.85000000E+002   9.80055813E-001   5.43482506E-001   9.80055856E-001
   1.90000000E+002   9.81581786E-001   5.43482557E-001   9.81581823E-001
   1.95000000E+002   9.82992771E-001   5.43482601E-001   9.82992805E-001
   2.00000000E+002   9.84270956E-001   5.43482639E-001   9.84270986E-001
   2.05000000E+002   9.85464600E-001   5.43482671E-001   9.85464627E-001
   2.10000000E+002   9.86543310E-001   5.43482699E-001   9.86543334E-001
   2.15000000E+002   9.87527379E-001   5.43482723E-001   9.87527400E-001
   2.20000000E+002   9.88450884E-001   5.43482744E-001   9.88450903E-001
   2.25000000E+002   9.89295592E-001   5.43482763E-001   9.89295609E-001
   2.30000000E+002   9.90077809E-001   5.43482779E-001   9.90077825E-001
   2.35000000E+002   9.90811638E-001   5.43482793E-001   9.90811652E-001
   2.40000000E+002   9.91469879E-001   5.43482805E-001   9.91469891E-001
   2.45000000E+002   9.92089207E-001   5.43482816E-001   9.92089219E-001
