# ./jetvheto -in n3lo-fixed-order/H125-LHC13-R04-mb-0-mt-1725-xmur050-xmuf025-log.fxd -xQ 0.0625 -out benchmarks-n3lo-smallR/H125-LHC13-R04-mb-0-mt-1725-xmur050-xmuf025-xQ0625-NNLO+NNLLb.res -scheme b -order 2 -ptmax 500.01 -fixed_order 2 -loop-mass t
# process = H    
# collider = pp   
# rts =  13000.000
# M   =    125.000
# muR =     62.500
# muF =     31.250
# Q   =      7.812
# p   =      5.000
# include_c1_squared =   F
# loop_mass  = t   
# alphas(MZ) =    0.11800
# alphas(M) =    0.11264
# alphas(muR) =    0.12516
# Rjet =      0.400
# order = NNLL
# pdf name and set = PDF4LHC15_nnlo_mc.LHgrid,    0
# matching scheme = b
# total cross sections [nb] at LO, NLOdiff, NNLOdiff, N3LOdiff =     0.014513    0.020714    0.009723    0.001827
#----------------------------------------------------------------------
# the lines that follow give the jet-veto efficiencies as a function of pt
#         pt            matched eff      resummed eff     fixed-order eff
   2.00000000E+001   3.18061981E-001   1.72497301E-001   3.17487847E-001
   2.50000000E+001   4.26898887E-001   1.72867593E-001   4.26754407E-001
   3.00000000E+001   5.12009987E-001   1.72976049E-001   5.11966558E-001
   3.50000000E+001   5.80484578E-001   1.73015263E-001   5.80470117E-001
   4.00000000E+001   6.36369811E-001   1.73031718E-001   6.36364792E-001
   4.50000000E+001   6.82613198E-001   1.73039432E-001   6.82611528E-001
   5.00000000E+001   7.21540463E-001   1.73043371E-001   7.21540031E-001
   5.50000000E+001   7.54444154E-001   1.73045524E-001   7.54444177E-001
   6.00000000E+001   7.82634626E-001   1.73046768E-001   7.82634803E-001
   6.50000000E+001   8.06977401E-001   1.73047521E-001   8.06977613E-001
   7.00000000E+001   8.28128672E-001   1.73047995E-001   8.28128874E-001
   7.50000000E+001   8.46387764E-001   1.73048303E-001   8.46387939E-001
   8.00000000E+001   8.62566154E-001   1.73048509E-001   8.62566302E-001
   8.50000000E+001   8.76705685E-001   1.73048651E-001   8.76705809E-001
   9.00000000E+001   8.89246027E-001   1.73048750E-001   8.89246129E-001
   9.50000000E+001   9.00241026E-001   1.73048822E-001   9.00241110E-001
   1.00000000E+002   9.10089694E-001   1.73048873E-001   9.10089763E-001
   1.05000000E+002   9.18898614E-001   1.73048912E-001   9.18898671E-001
   1.10000000E+002   9.26709662E-001   1.73048941E-001   9.26709709E-001
   1.15000000E+002   9.33781905E-001   1.73048963E-001   9.33781944E-001
   1.20000000E+002   9.40119517E-001   1.73048980E-001   9.40119549E-001
   1.25000000E+002   9.45733681E-001   1.73048993E-001   9.45733708E-001
   1.30000000E+002   9.50848834E-001   1.73049003E-001   9.50848857E-001
   1.35000000E+002   9.55452626E-001   1.73049011E-001   9.55452646E-001
   1.40000000E+002   9.59629513E-001   1.73049018E-001   9.59629530E-001
   1.45000000E+002   9.63454376E-001   1.73049023E-001   9.63454390E-001
   1.50000000E+002   9.66876092E-001   1.73049028E-001   9.66876104E-001
   1.55000000E+002   9.69986748E-001   1.73049031E-001   9.69986758E-001
   1.60000000E+002   9.72838007E-001   1.73049034E-001   9.72838016E-001
   1.65000000E+002   9.75431184E-001   1.73049036E-001   9.75431192E-001
   1.70000000E+002   9.77760480E-001   1.73049039E-001   9.77760487E-001
   1.75000000E+002   9.79889602E-001   1.73049040E-001   9.79889608E-001
   1.80000000E+002   9.81837768E-001   1.73049042E-001   9.81837773E-001
   1.85000000E+002   9.83599942E-001   1.73049043E-001   9.83599946E-001
   1.90000000E+002   9.85232647E-001   1.73049044E-001   9.85232651E-001
   1.95000000E+002   9.86736140E-001   1.73049045E-001   9.86736143E-001
   2.00000000E+002   9.88085972E-001   1.73049045E-001   9.88085975E-001
   2.05000000E+002   9.89342667E-001   1.73049046E-001   9.89342669E-001
   2.10000000E+002   9.90501993E-001   1.73049047E-001   9.90501995E-001
   2.15000000E+002   9.91508221E-001   1.73049047E-001   9.91508223E-001
   2.20000000E+002   9.92461381E-001   1.73049048E-001   9.92461383E-001
   2.25000000E+002   9.93346735E-001   1.73049048E-001   9.93346737E-001
   2.30000000E+002   9.94132433E-001   1.73049048E-001   9.94132434E-001
   2.35000000E+002   9.94850141E-001   1.73049049E-001   9.94850142E-001
   2.40000000E+002   9.95496739E-001   1.73049049E-001   9.95496740E-001
   2.45000000E+002   9.96106436E-001   1.73049049E-001   9.96106437E-001
