# ./jetvheto -in n3lo-fixed-order/H125-LHC13-R04-mb-475-mt-1725-xmur100-xmuf100-log.fxd -xQ 0.5 -out benchmarks-n3lo-smallR/H125-LHC13-R04-mb-475-mt-1725-xmur100-xmuf100-xQ050-NNLO+NNLLa.R0-0.5.res -scheme a -order 2 -ptmax 500.01 -fixed_order 2 -small-r -loop-mass t+b -R0 0.5
# process = H    
# collider = pp   
# rts =  13000.000
# M   =    125.000
# muR =    125.000
# muF =    125.000
# Q   =     62.500
# p   =      5.000
# include_c1_squared =   F
# loop_mass  = t+b 
# alphas(MZ) =    0.11800
# alphas(M) =    0.11264
# alphas(muR) =    0.11264
# Rjet =      0.400
# order = NNLL
# pdf name and set = PDF4LHC15_nnlo_mc.LHgrid,    0
# matching scheme = a
# total cross sections [nb] at LO, NLOdiff, NNLOdiff, N3LOdiff =     0.012292    0.016994    0.010146    0.003834
#----------------------------------------------------------------------
# the lines that follow give the jet-veto efficiencies as a function of pt
#         pt            matched eff      resummed eff     fixed-order eff
   2.00000000E+001   4.72281842E-001   4.99430816E-001   4.93150502E-001
   2.50000000E+001   5.61903415E-001   5.79517705E-001   5.75024850E-001
   3.00000000E+001   6.32201520E-001   6.36340573E-001   6.38301171E-001
   3.50000000E+001   6.87908640E-001   6.76153147E-001   6.88801162E-001
   4.00000000E+001   7.32210974E-001   7.03528701E-001   7.29800784E-001
   4.50000000E+001   7.67862402E-001   7.21877962E-001   7.63713984E-001
   5.00000000E+001   7.96902812E-001   7.33806531E-001   7.92155543E-001
   5.50000000E+001   8.20792146E-001   7.41317889E-001   8.16168137E-001
   6.00000000E+001   8.40918564E-001   7.45918995E-001   8.36797648E-001
   6.50000000E+001   8.58064473E-001   7.48685905E-001   8.54584097E-001
   7.00000000E+001   8.72810004E-001   7.50338696E-001   8.69965602E-001
   7.50000000E+001   8.85635192E-001   7.51331227E-001   8.83354565E-001
   8.00000000E+001   8.96961865E-001   7.51936563E-001   8.95150407E-001
   8.50000000E+001   9.06880553E-001   7.52314151E-001   9.05446499E-001
   9.00000000E+001   9.15767210E-001   7.52556055E-001   9.14630889E-001
   9.50000000E+001   9.23612289E-001   7.52715476E-001   9.22708788E-001
   1.00000000E+002   9.30615285E-001   7.52823515E-001   9.29893229E-001
   1.05000000E+002   9.36911607E-001   7.52898693E-001   9.36331059E-001
   1.10000000E+002   9.42478130E-001   7.52952287E-001   9.42008406E-001
   1.15000000E+002   9.47538545E-001   7.52991337E-001   9.47155949E-001
   1.20000000E+002   9.52023370E-001   7.53020351E-001   9.51709725E-001
   1.25000000E+002   9.56136440E-001   7.53042283E-001   9.55877636E-001
   1.30000000E+002   9.59835615E-001   7.53059117E-001   9.59620741E-001
   1.35000000E+002   9.63201227E-001   7.53072216E-001   9.63021762E-001
   1.40000000E+002   9.66219448E-001   7.53082532E-001   9.66068699E-001
   1.45000000E+002   9.69014180E-001   7.53090744E-001   9.68886869E-001
   1.50000000E+002   9.71507270E-001   7.53097347E-001   9.71399196E-001
   1.55000000E+002   9.73814147E-001   7.53102702E-001   9.73721950E-001
   1.60000000E+002   9.75901617E-001   7.53107080E-001   9.75822606E-001
   1.65000000E+002   9.77809241E-001   7.53110685E-001   9.77741229E-001
   1.70000000E+002   9.79559812E-001   7.53113675E-001   9.79501024E-001
   1.75000000E+002   9.81140904E-001   7.53116169E-001   9.81089888E-001
   1.80000000E+002   9.82596731E-001   7.53118262E-001   9.82552292E-001
   1.85000000E+002   9.83926393E-001   7.53120028E-001   9.83887543E-001
   1.90000000E+002   9.85150565E-001   7.53121525E-001   9.85116487E-001
   1.95000000E+002   9.86293224E-001   7.53122800E-001   9.86263234E-001
   2.00000000E+002   9.87327409E-001   7.53123891E-001   9.87300933E-001
   2.05000000E+002   9.88288499E-001   7.53124829E-001   9.88265058E-001
   2.10000000E+002   9.89165403E-001   7.53125637E-001   9.89144590E-001
   2.15000000E+002   9.89955617E-001   7.53126337E-001   9.89937088E-001
   2.20000000E+002   9.90701455E-001   7.53126945E-001   9.90684915E-001
   2.25000000E+002   9.91383563E-001   7.53127475E-001   9.91368764E-001
   2.30000000E+002   9.92012575E-001   7.53127938E-001   9.91999301E-001
   2.35000000E+002   9.92601079E-001   7.53128345E-001   9.92589146E-001
   2.40000000E+002   9.93129535E-001   7.53128702E-001   9.93118784E-001
   2.45000000E+002   9.93630753E-001   7.53129017E-001   9.93621047E-001
