# ./jetvheto -in n3lo-fixed-order/H125-LHC13-R04-mb-475-mt-1725-xmur200-xmuf200-log.fxd -xQ 0.25 -out benchmarks-n3lo-smallR/H125-LHC13-R04-mb-475-mt-1725-xmur200-xmuf200-xQ025-N3LO+NNLLb.R0-0.5.res -scheme b -order 2 -ptmax 500.01 -fixed_order 3 -small-r -loop-mass t+b -R0 0.5
# process = H    
# collider = pp   
# rts =  13000.000
# M   =    125.000
# muR =    250.000
# muF =    250.000
# Q   =     31.250
# p   =      5.000
# include_c1_squared =   F
# loop_mass  = t+b 
# alphas(MZ) =    0.11800
# alphas(M) =    0.11264
# alphas(muR) =    0.10244
# Rjet =      0.400
# order = NNLL
# pdf name and set = PDF4LHC15_nnlo_mc.LHgrid,    0
# matching scheme = b
# total cross sections [nb] at LO, NLOdiff, NNLOdiff, N3LOdiff =     0.010658    0.014649    0.010464    0.005358
#----------------------------------------------------------------------
# the lines that follow give the jet-veto efficiencies as a function of pt
#         pt            matched eff      resummed eff     fixed-order eff
   2.00000000E+001   4.16248352E-001   5.65683843E-001   3.93395559E-001
   2.50000000E+001   5.03337294E-001   6.37736808E-001   4.92532833E-001
   3.00000000E+001   5.73337650E-001   6.79769194E-001   5.68240268E-001
   3.50000000E+001   6.32336171E-001   7.02512744E-001   6.29965429E-001
   4.00000000E+001   6.81357166E-001   7.14416032E-001   6.80230765E-001
   4.50000000E+001   7.21378957E-001   7.20693087E-001   7.20815417E-001
   5.00000000E+001   7.56747634E-001   7.24107964E-001   7.56465253E-001
   5.50000000E+001   7.85623138E-001   7.26041416E-001   7.85472917E-001
   6.00000000E+001   8.10330528E-001   7.27181524E-001   8.10248405E-001
   6.50000000E+001   8.31385946E-001   7.27879870E-001   8.31339503E-001
   7.00000000E+001   8.50480499E-001   7.28322575E-001   8.50454712E-001
   7.50000000E+001   8.66312020E-001   7.28611950E-001   8.66297011E-001
   8.00000000E+001   8.80114479E-001   7.28806315E-001   8.80105627E-001
   8.50000000E+001   8.92407338E-001   7.28940061E-001   8.92402216E-001
   9.00000000E+001   9.02923525E-001   7.29034098E-001   9.02920500E-001
   9.50000000E+001   9.12751041E-001   7.29101505E-001   9.12749431E-001
   1.00000000E+002   9.21056760E-001   7.29150668E-001   9.21055914E-001
   1.05000000E+002   9.28380025E-001   7.29187092E-001   9.28379619E-001
   1.10000000E+002   9.34731250E-001   7.29214463E-001   9.34731087E-001
   1.15000000E+002   9.40750470E-001   7.29235299E-001   9.40750487E-001
   1.20000000E+002   9.46203714E-001   7.29251350E-001   9.46203839E-001
   1.25000000E+002   9.50747873E-001   7.29263849E-001   9.50748033E-001
   1.30000000E+002   9.55071218E-001   7.29273680E-001   9.55071404E-001
   1.35000000E+002   9.58784109E-001   7.29281484E-001   9.58784295E-001
   1.40000000E+002   9.62493910E-001   7.29287733E-001   9.62494103E-001
   1.45000000E+002   9.65458239E-001   7.29292775E-001   9.65458416E-001
   1.50000000E+002   9.68365675E-001   7.29296875E-001   9.68365842E-001
   1.55000000E+002   9.70956192E-001   7.29300231E-001   9.70956346E-001
   1.60000000E+002   9.73228471E-001   7.29302997E-001   9.73228609E-001
   1.65000000E+002   9.75208462E-001   7.29305289E-001   9.75208585E-001
   1.70000000E+002   9.77296994E-001   7.29307200E-001   9.77297108E-001
   1.75000000E+002   9.79003647E-001   7.29308802E-001   9.79003749E-001
   1.80000000E+002   9.80846489E-001   7.29310152E-001   9.80846583E-001
   1.85000000E+002   9.82182333E-001   7.29311294E-001   9.82182417E-001
   1.90000000E+002   9.83533430E-001   7.29312265E-001   9.83533505E-001
   1.95000000E+002   9.84739296E-001   7.29313094E-001   9.84739364E-001
   2.00000000E+002   9.86049854E-001   7.29313805E-001   9.86049915E-001
   2.05000000E+002   9.86969375E-001   7.29314417E-001   9.86969430E-001
   2.10000000E+002   9.87844965E-001   7.29314946E-001   9.87845014E-001
   2.15000000E+002   9.88780863E-001   7.29315404E-001   9.88780907E-001
   2.20000000E+002   9.89647107E-001   7.29315802E-001   9.89647147E-001
   2.25000000E+002   9.90326825E-001   7.29316150E-001   9.90326861E-001
   2.30000000E+002   9.90979878E-001   7.29316454E-001   9.90979911E-001
   2.35000000E+002   9.91654030E-001   7.29316721E-001   9.91654060E-001
   2.40000000E+002   9.92240399E-001   7.29316956E-001   9.92240426E-001
   2.45000000E+002   9.92807612E-001   7.29317164E-001   9.92807637E-001
