# ./jetvheto -in n3lo-fixed-order/H125-LHC13-R04-mb-0-mt-1725-xmur100-xmuf100-log.fxd -xQ 0.5 -out benchmarks-n3lo-smallR/H125-LHC13-R04-mb-0-mt-1725-xmur100-xmuf100-xQ050-NNLO+NNLLb.res -scheme b -order 2 -ptmax 500.01 -fixed_order 2 -loop-mass t
# process = H    
# collider = pp   
# rts =  13000.000
# M   =    125.000
# muR =    125.000
# muF =    125.000
# Q   =     62.500
# p   =      5.000
# include_c1_squared =   F
# loop_mass  = t   
# alphas(MZ) =    0.11800
# alphas(M) =    0.11264
# alphas(muR) =    0.11264
# Rjet =      0.400
# order = NNLL
# pdf name and set = PDF4LHC15_nnlo_mc.LHgrid,    0
# matching scheme = b
# total cross sections [nb] at LO, NLOdiff, NNLOdiff, N3LOdiff =     0.013801    0.017514    0.010146    0.003834
#----------------------------------------------------------------------
# the lines that follow give the jet-veto efficiencies as a function of pt
#         pt            matched eff      resummed eff     fixed-order eff
   2.00000000E+001   4.29298800E-001   5.20624865E-001   3.54033455E-001
   2.50000000E+001   5.13753842E-001   6.04227448E-001   4.61286580E-001
   3.00000000E+001   5.81709492E-001   6.63556382E-001   5.43462220E-001
   3.50000000E+001   6.37203577E-001   7.05132637E-001   6.08508831E-001
   4.00000000E+001   6.83058621E-001   7.33726813E-001   6.61203589E-001
   4.50000000E+001   7.21152161E-001   7.52897595E-001   7.04404447E-001
   5.00000000E+001   7.53331726E-001   7.65364033E-001   7.40494892E-001
   5.50000000E+001   7.80702197E-001   7.73217128E-001   7.70889733E-001
   6.00000000E+001   8.04349813E-001   7.78029925E-001   7.96874542E-001
   6.50000000E+001   8.24892392E-001   7.80925889E-001   8.19206785E-001
   7.00000000E+001   8.42736320E-001   7.82657024E-001   8.38409214E-001
   7.50000000E+001   8.58534646E-001   7.83697469E-001   8.55230292E-001
   8.00000000E+001   8.72498983E-001   7.84332607E-001   8.69962422E-001
   8.50000000E+001   8.84784014E-001   7.84729166E-001   8.82823656E-001
   9.00000000E+001   8.95735808E-001   7.84983468E-001   8.94209219E-001
   9.50000000E+001   9.05428595E-001   7.85151217E-001   9.04230001E-001
   1.00000000E+002   9.14116991E-001   7.85264998E-001   9.13167919E-001
   1.05000000E+002   9.21892311E-001   7.85344233E-001   9.21134551E-001
   1.10000000E+002   9.28781342E-001   7.85400760E-001   9.28171457E-001
   1.15000000E+002   9.35048391E-001   7.85441972E-001   9.34553636E-001
   1.20000000E+002   9.40648572E-001   7.85472607E-001   9.40244216E-001
   1.25000000E+002   9.45722288E-001   7.85495775E-001   9.45389469E-001
   1.30000000E+002   9.50318339E-001   7.85513565E-001   9.50042546E-001
   1.35000000E+002   9.54458389E-001   7.85527411E-001   9.54228420E-001
   1.40000000E+002   9.58206095E-001   7.85538318E-001   9.58013167E-001
   1.45000000E+002   9.61655381E-001   7.85547004E-001   9.61492620E-001
   1.50000000E+002   9.64733623E-001   7.85553987E-001   9.64595577E-001
   1.55000000E+002   9.67582612E-001   7.85559652E-001   9.67464933E-001
   1.60000000E+002   9.70185708E-001   7.85564284E-001   9.70084916E-001
   1.65000000E+002   9.72542364E-001   7.85568100E-001   9.72455647E-001
   1.70000000E+002   9.74709284E-001   7.85571264E-001   9.74634361E-001
   1.75000000E+002   9.76657338E-001   7.85573903E-001   9.76592344E-001
   1.80000000E+002   9.78465177E-001   7.85576119E-001   9.78408580E-001
   1.85000000E+002   9.80105320E-001   7.85577988E-001   9.80055856E-001
   1.90000000E+002   9.81625203E-001   7.85579572E-001   9.81581823E-001
   1.95000000E+002   9.83030973E-001   7.85580922E-001   9.82992805E-001
   2.00000000E+002   9.84304673E-001   7.85582077E-001   9.84270986E-001
   2.05000000E+002   9.85494449E-001   7.85583070E-001   9.85464627E-001
   2.10000000E+002   9.86569809E-001   7.85583926E-001   9.86543334E-001
   2.15000000E+002   9.87550967E-001   7.85584667E-001   9.87527400E-001
   2.20000000E+002   9.88471937E-001   7.85585310E-001   9.88450903E-001
   2.25000000E+002   9.89314428E-001   7.85585871E-001   9.89295609E-001
   2.30000000E+002   9.90094703E-001   7.85586362E-001   9.90077825E-001
   2.35000000E+002   9.90826823E-001   7.85586792E-001   9.90811652E-001
   2.40000000E+002   9.91483559E-001   7.85587170E-001   9.91469891E-001
   2.45000000E+002   9.92101557E-001   7.85587504E-001   9.92089219E-001
