# ./jetvheto -in n3lo-fixed-order/H125-LHC13-R04-mb-475-mt-1725-xmur025-xmuf025-log.fxd -xQ 0.25 -out benchmarks-n3lo-smallR/H125-LHC13-R04-mb-475-mt-1725-xmur025-xmuf025-xQ025-NNLO+NNLLb.R0-2.0.res -scheme b -order 2 -ptmax 500.01 -fixed_order 2 -small-r -loop-mass t+b -R0 2.0
# process = H    
# collider = pp   
# rts =  13000.000
# M   =    125.000
# muR =     31.250
# muF =     31.250
# Q   =     31.250
# p   =      5.000
# include_c1_squared =   F
# loop_mass  = t+b 
# alphas(MZ) =    0.11800
# alphas(M) =    0.11264
# alphas(muR) =    0.14091
# Rjet =      0.400
# order = NNLL
# pdf name and set = PDF4LHC15_nnlo_mc.LHgrid,    0
# matching scheme = b
# total cross sections [nb] at LO, NLOdiff, NNLOdiff, N3LOdiff =     0.016156    0.025248    0.006043   -0.002471
#----------------------------------------------------------------------
# the lines that follow give the jet-veto efficiencies as a function of pt
#         pt            matched eff      resummed eff     fixed-order eff
   2.00000000E+001   3.75366658E-001   4.24627399E-001   3.28893509E-001
   2.50000000E+001   4.57159743E-001   4.82627426E-001   4.30904941E-001
   3.00000000E+001   5.27185194E-001   5.17108044E-001   5.12833977E-001
   3.50000000E+001   5.87989173E-001   5.36018953E-001   5.80181023E-001
   4.00000000E+001   6.40248241E-001   5.46001476E-001   6.35905108E-001
   4.50000000E+001   6.85177666E-001   5.51292394E-001   6.82675043E-001
   5.00000000E+001   7.23661553E-001   5.54179208E-001   7.22156956E-001
   5.50000000E+001   7.56654954E-001   5.55816426E-001   7.55714207E-001
   6.00000000E+001   7.85161100E-001   5.56782801E-001   7.84550979E-001
   6.50000000E+001   8.09860684E-001   5.57375084E-001   8.09451630E-001
   7.00000000E+001   8.31504902E-001   5.57750693E-001   8.31222556E-001
   7.50000000E+001   8.50087380E-001   5.57996269E-001   8.49887242E-001
   8.00000000E+001   8.66609331E-001   5.58161243E-001   8.66464336E-001
   8.50000000E+001   8.81170681E-001   5.58274776E-001   8.81063473E-001
   9.00000000E+001   8.93967824E-001   5.58354608E-001   8.93887126E-001
   9.50000000E+001   9.05136335E-001   5.58411835E-001   9.05074588E-001
   1.00000000E+002   9.15078536E-001   5.58453575E-001   9.15030625E-001
   1.05000000E+002   9.23993726E-001   5.58484500E-001   9.23956070E-001
   1.10000000E+002   9.31886488E-001   5.58507739E-001   9.31856548E-001
   1.15000000E+002   9.38993763E-001   5.58525431E-001   9.38969708E-001
   1.20000000E+002   9.45364581E-001   5.58539059E-001   9.45345060E-001
   1.25000000E+002   9.50994305E-001   5.58549672E-001   9.50978318E-001
   1.30000000E+002   9.56097780E-001   5.58558020E-001   9.56084587E-001
   1.35000000E+002   9.60677406E-001   5.58564646E-001   9.60666440E-001
   1.40000000E+002   9.64769151E-001   5.58569952E-001   9.64759970E-001
   1.45000000E+002   9.68542769E-001   5.58574234E-001   9.68535035E-001
   1.50000000E+002   9.71898785E-001   5.58577715E-001   9.71892230E-001
   1.55000000E+002   9.74933594E-001   5.58580565E-001   9.74928007E-001
   1.60000000E+002   9.77704636E-001   5.58582913E-001   9.77699851E-001
   1.65000000E+002   9.80204656E-001   5.58584859E-001   9.80200538E-001
   1.70000000E+002   9.82441678E-001   5.58586482E-001   9.82438117E-001
   1.75000000E+002   9.84479133E-001   5.58587842E-001   9.84476043E-001
   1.80000000E+002   9.86311747E-001   5.58588988E-001   9.86309053E-001
   1.85000000E+002   9.87953722E-001   5.58589958E-001   9.87951365E-001
   1.90000000E+002   9.89480678E-001   5.58590782E-001   9.89478609E-001
   1.95000000E+002   9.90874283E-001   5.58591487E-001   9.90872460E-001
   2.00000000E+002   9.92120888E-001   5.58592090E-001   9.92119277E-001
   2.05000000E+002   9.93274717E-001   5.58592610E-001   9.93273289E-001
   2.10000000E+002   9.94326568E-001   5.58593059E-001   9.94325298E-001
   2.15000000E+002   9.95233766E-001   5.58593448E-001   9.95232634E-001
   2.20000000E+002   9.96096673E-001   5.58593786E-001   9.96095662E-001
   2.25000000E+002   9.96873792E-001   5.58594081E-001   9.96872886E-001
   2.30000000E+002   9.97557636E-001   5.58594340E-001   9.97556823E-001
   2.35000000E+002   9.98195154E-001   5.58594566E-001   9.98194422E-001
   2.40000000E+002   9.98752475E-001   5.58594766E-001   9.98751815E-001
   2.45000000E+002   9.99256461E-001   5.58594942E-001   9.99255864E-001
