# ./jetvheto -in n3lo-fixed-order/H125-LHC13-R04-heft-xmur100-xmuf200-log.fxd -xQ 0.50 -out benchmarks-n3lo-smallR/H125-LHC13-R04-heft-xmur100-xmuf200-xQ050-NNLO+NNLLb.R0-2.0.res -scheme b -order 2 -ptmax 500.01 -fixed_order 2 -small-r -R0 2.0
# process = H    
# collider = pp   
# rts =  13000.000
# M   =    125.000
# muR =    125.000
# muF =    250.000
# Q   =     62.500
# p   =      5.000
# include_c1_squared =   F
# loop_mass  = none
# alphas(MZ) =    0.11800
# alphas(M) =    0.11264
# alphas(muR) =    0.11264
# Rjet =      0.400
# order = NNLL
# pdf name and set = PDF4LHC15_nnlo_mc.LHgrid,    0
# matching scheme = b
# total cross sections [nb] at LO, NLOdiff, NNLOdiff, N3LOdiff =     0.013467    0.016878    0.009991    0.003297
#----------------------------------------------------------------------
# the lines that follow give the jet-veto efficiencies as a function of pt
#         pt            matched eff      resummed eff     fixed-order eff
   2.00000000E+001   4.34204902E-001   5.40758726E-001   3.43340794E-001
   2.50000000E+001   5.16076311E-001   6.18842841E-001   4.52409348E-001
   3.00000000E+001   5.82142586E-001   6.73406307E-001   5.35758637E-001
   3.50000000E+001   6.36134441E-001   7.11053459E-001   6.01503733E-001
   4.00000000E+001   6.80773836E-001   7.36495729E-001   6.54564188E-001
   4.50000000E+001   7.18391900E-001   7.53187719E-001   6.98445136E-001
   5.00000000E+001   7.50036703E-001   7.63742261E-001   7.34840813E-001
   5.50000000E+001   7.77219022E-001   7.70151821E-001   7.65662557E-001
   6.00000000E+001   8.00553793E-001   7.73895343E-001   7.91779976E-001
   6.50000000E+001   8.20834331E-001   7.76010327E-001   8.14177418E-001
   7.00000000E+001   8.38691558E-001   7.77176203E-001   8.33632301E-001
   7.50000000E+001   8.54329966E-001   7.77808967E-001   8.50470066E-001
   8.00000000E+001   8.68247660E-001   7.78149658E-001   8.65285633E-001
   8.50000000E+001   8.80487841E-001   7.78332547E-001   8.78198768E-001
   9.00000000E+001   8.91455370E-001   7.78430628E-001   8.89672217E-001
   9.50000000E+001   9.01171763E-001   7.78483083E-001   8.99771148E-001
   1.00000000E+002   9.09751719E-001   7.78510919E-001   9.08642362E-001
   1.05000000E+002   9.17543417E-001   7.78525438E-001   9.16657297E-001
   1.10000000E+002   9.24524263E-001   7.78532729E-001   9.23810697E-001
   1.15000000E+002   9.30765207E-001   7.78536106E-001   9.30186115E-001
   1.20000000E+002   9.36396682E-001   7.78537383E-001   9.35923218E-001
   1.25000000E+002   9.41440330E-001   7.78537559E-001   9.41050492E-001
   1.30000000E+002   9.46000526E-001   7.78537183E-001   9.45677390E-001
   1.35000000E+002   9.50192562E-001   7.78536557E-001   9.49923010E-001
   1.40000000E+002   9.53962735E-001   7.78535844E-001   9.53736540E-001
   1.45000000E+002   9.57379229E-001   7.78535131E-001   9.57188352E-001
   1.50000000E+002   9.60491523E-001   7.78534459E-001   9.60329592E-001
   1.55000000E+002   9.63323896E-001   7.78533847E-001   9.63185830E-001
   1.60000000E+002   9.65951920E-001   7.78533300E-001   9.65833642E-001
   1.65000000E+002   9.68337338E-001   7.78532818E-001   9.68235558E-001
   1.70000000E+002   9.70514194E-001   7.78532397E-001   9.70426241E-001
   1.75000000E+002   9.72480962E-001   7.78532029E-001   9.72404651E-001
   1.80000000E+002   9.74313204E-001   7.78531709E-001   9.74246742E-001
   1.85000000E+002   9.76014775E-001   7.78531432E-001   9.75956678E-001
   1.90000000E+002   9.77564802E-001   7.78531190E-001   9.77513844E-001
   1.95000000E+002   9.79000069E-001   7.78530980E-001   9.78955226E-001
   2.00000000E+002   9.80311129E-001   7.78530798E-001   9.80271544E-001
   2.05000000E+002   9.81534763E-001   7.78530638E-001   9.81499716E-001
   2.10000000E+002   9.82671015E-001   7.78530499E-001   9.82639896E-001
   2.15000000E+002   9.83727596E-001   7.78530377E-001   9.83699890E-001
   2.20000000E+002   9.84699627E-001   7.78530271E-001   9.84674897E-001
   2.25000000E+002   9.85599870E-001   7.78530177E-001   9.85577740E-001
   2.30000000E+002   9.86449109E-001   7.78530094E-001   9.86429260E-001
   2.35000000E+002   9.87242171E-001   7.78530021E-001   9.87224325E-001
   2.40000000E+002   9.87955430E-001   7.78529957E-001   9.87939351E-001
   2.45000000E+002   9.88641710E-001   7.78529900E-001   9.88627193E-001
