# ./jetvheto -in n3lo-fixed-order/H125-LHC13-R04-mb-0-mt-1725-xmur100-xmuf100-log.fxd -xQ 0.0625 -out benchmarks-n3lo-smallR/H125-LHC13-R04-mb-0-mt-1725-xmur100-xmuf100-xQ0625-NNLO+NNLLa.R0-0.5.res -scheme a -order 2 -ptmax 500.01 -small-r -fixed_order 2 -loop-mass t -R0 0.5
# process = H    
# collider = pp   
# rts =  13000.000
# M   =    125.000
# muR =    125.000
# muF =    125.000
# Q   =      7.812
# p   =      5.000
# include_c1_squared =   F
# loop_mass  = t   
# alphas(MZ) =    0.11800
# alphas(M) =    0.11264
# alphas(muR) =    0.11264
# Rjet =      0.400
# order = NNLL
# pdf name and set = PDF4LHC15_nnlo_mc.LHgrid,    0
# matching scheme = a
# total cross sections [nb] at LO, NLOdiff, NNLOdiff, N3LOdiff =     0.013801    0.017514    0.010146    0.003834
#----------------------------------------------------------------------
# the lines that follow give the jet-veto efficiencies as a function of pt
#         pt            matched eff      resummed eff     fixed-order eff
   2.00000000E+001   5.11960906E-001   2.84999996E-001   5.12111256E-001
   2.50000000E+001   5.93034304E-001   2.85518373E-001   5.93117916E-001
   3.00000000E+001   6.55139372E-001   2.85670174E-001   6.55183932E-001
   3.50000000E+001   7.04287957E-001   2.85725056E-001   7.04312652E-001
   4.00000000E+001   7.44097823E-001   2.85748086E-001   7.44112204E-001
   4.50000000E+001   7.76732393E-001   2.85758882E-001   7.76741158E-001
   5.00000000E+001   8.03994160E-001   2.85764395E-001   8.03999724E-001
   5.50000000E+001   8.26952829E-001   2.85767408E-001   8.26956486E-001
   6.00000000E+001   8.46579940E-001   2.85769150E-001   8.46582419E-001
   6.50000000E+001   8.63447898E-001   2.85770203E-001   8.63449624E-001
   7.00000000E+001   8.77951698E-001   2.85770866E-001   8.77952928E-001
   7.50000000E+001   8.90656738E-001   2.85771298E-001   8.90657633E-001
   8.00000000E+001   9.01783924E-001   2.85771586E-001   9.01784587E-001
   8.50000000E+001   9.11497983E-001   2.85771785E-001   9.11498483E-001
   9.00000000E+001   9.20097445E-001   2.85771924E-001   9.20097826E-001
   9.50000000E+001   9.27666075E-001   2.85772023E-001   9.27666371E-001
   1.00000000E+002   9.34416814E-001   2.85772096E-001   9.34417045E-001
   1.05000000E+002   9.40433938E-001   2.85772150E-001   9.40434122E-001
   1.10000000E+002   9.45748843E-001   2.85772190E-001   9.45748990E-001
   1.15000000E+002   9.50569235E-001   2.85772221E-001   9.50569353E-001
   1.20000000E+002   9.54867265E-001   2.85772245E-001   9.54867362E-001
   1.25000000E+002   9.58753414E-001   2.85772263E-001   9.58753493E-001
   1.30000000E+002   9.62267827E-001   2.85772278E-001   9.62267892E-001
   1.35000000E+002   9.65429365E-001   2.85772289E-001   9.65429419E-001
   1.40000000E+002   9.68287935E-001   2.85772298E-001   9.68287981E-001
   1.45000000E+002   9.70915921E-001   2.85772306E-001   9.70915959E-001
   1.50000000E+002   9.73259543E-001   2.85772312E-001   9.73259576E-001
   1.55000000E+002   9.75426729E-001   2.85772317E-001   9.75426757E-001
   1.60000000E+002   9.77405566E-001   2.85772321E-001   9.77405590E-001
   1.65000000E+002   9.79196147E-001   2.85772324E-001   9.79196168E-001
   1.70000000E+002   9.80841699E-001   2.85772327E-001   9.80841717E-001
   1.75000000E+002   9.82320537E-001   2.85772329E-001   9.82320552E-001
   1.80000000E+002   9.83692314E-001   2.85772331E-001   9.83692327E-001
   1.85000000E+002   9.84936479E-001   2.85772333E-001   9.84936490E-001
   1.90000000E+002   9.86089020E-001   2.85772334E-001   9.86089030E-001
   1.95000000E+002   9.87154714E-001   2.85772336E-001   9.87154723E-001
   2.00000000E+002   9.88120106E-001   2.85772337E-001   9.88120114E-001
   2.05000000E+002   9.89021646E-001   2.85772338E-001   9.89021653E-001
   2.10000000E+002   9.89836378E-001   2.85772338E-001   9.89836384E-001
   2.15000000E+002   9.90579629E-001   2.85772339E-001   9.90579634E-001
   2.20000000E+002   9.91277137E-001   2.85772340E-001   9.91277142E-001
   2.25000000E+002   9.91915131E-001   2.85772340E-001   9.91915136E-001
   2.30000000E+002   9.92505927E-001   2.85772341E-001   9.92505931E-001
   2.35000000E+002   9.93060176E-001   2.85772341E-001   9.93060180E-001
   2.40000000E+002   9.93557335E-001   2.85772341E-001   9.93557338E-001
   2.45000000E+002   9.94025104E-001   2.85772342E-001   9.94025107E-001
