# ./jetvheto -in n3lo-fixed-order/H125-LHC13-R04-heft-xmur200-xmuf200-log.fxd -xQ 0.50 -out benchmarks-n3lo-smallR/H125-LHC13-R04-heft-xmur200-xmuf200-xQ050-N3LO+NNLLa.R0-1.5.res -scheme a -order 2 -ptmax 500.01 -fixed_order 3 -small-r -R0 1.5
# process = H    
# collider = pp   
# rts =  13000.000
# M   =    125.000
# muR =    250.000
# muF =    250.000
# Q   =     62.500
# p   =      5.000
# include_c1_squared =   F
# loop_mass  = none
# alphas(MZ) =    0.11800
# alphas(M) =    0.11264
# alphas(muR) =    0.10244
# Rjet =      0.400
# order = NNLL
# pdf name and set = PDF4LHC15_nnlo_mc.LHgrid,    0
# matching scheme = a
# total cross sections [nb] at LO, NLOdiff, NNLOdiff, N3LOdiff =     0.011138    0.014625    0.010464    0.005358
#----------------------------------------------------------------------
# the lines that follow give the jet-veto efficiencies as a function of pt
#         pt            matched eff      resummed eff     fixed-order eff
   2.00000000E+001   4.74262948E-001   5.43759127E-001   4.82167206E-001
   2.50000000E+001   5.61972534E-001   6.26716351E-001   5.67551507E-001
   3.00000000E+001   6.30081498E-001   6.85318491E-001   6.32598237E-001
   3.50000000E+001   6.85115030E-001   7.26214788E-001   6.85290493E-001
   4.00000000E+001   7.29433516E-001   7.54218115E-001   7.28034523E-001
   4.50000000E+001   7.64850606E-001   7.72890140E-001   7.62571711E-001
   5.00000000E+001   7.95303232E-001   7.84944993E-001   7.92748423E-001
   5.50000000E+001   8.19817359E-001   7.92468939E-001   8.17326746E-001
   6.00000000E+001   8.40516427E-001   7.97025854E-001   8.38291240E-001
   6.50000000E+001   8.57931385E-001   7.99726913E-001   8.56045728E-001
   7.00000000E+001   8.73701438E-001   8.01312047E-001   8.72155634E-001
   7.50000000E+001   8.86710635E-001   8.02244264E-001   8.85467316E-001
   8.00000000E+001   8.98061027E-001   8.02799517E-001   8.97070806E-001
   8.50000000E+001   9.08181577E-001   8.03137163E-001   9.07395959E-001
   9.00000000E+001   9.16879223E-001   8.03347865E-001   9.16255532E-001
   9.50000000E+001   9.25023865E-001   8.03483119E-001   9.24527125E-001
   1.00000000E+002   9.31884178E-001   8.03572489E-001   9.31486782E-001
   1.05000000E+002   9.37945409E-001   8.03633245E-001   9.37625606E-001
   1.10000000E+002   9.43221003E-001   8.03675655E-001   9.42962057E-001
   1.15000000E+002   9.48210331E-001   8.03705986E-001   9.47999286E-001
   1.20000000E+002   9.52755006E-001   8.03728157E-001   9.52581879E-001
   1.25000000E+002   9.56527424E-001   8.03744684E-001   9.56384544E-001
   1.30000000E+002   9.60128711E-001   8.03757218E-001   9.60010054E-001
   1.35000000E+002   9.63234510E-001   8.03766873E-001   9.63135390E-001
   1.40000000E+002   9.66342335E-001   8.03774411E-001   9.66259059E-001
   1.45000000E+002   9.68817540E-001   8.03780370E-001   9.68747214E-001
   1.50000000E+002   9.71246493E-001   8.03785131E-001   9.71186792E-001
   1.55000000E+002   9.73418464E-001   8.03788973E-001   9.73367540E-001
   1.60000000E+002   9.75331440E-001   8.03792100E-001   9.75287799E-001
   1.65000000E+002   9.76990903E-001   8.03794666E-001   9.76953344E-001
   1.70000000E+002   9.78752254E-001   8.03796787E-001   9.78719789E-001
   1.75000000E+002   9.80196069E-001   8.03798552E-001   9.80167900E-001
   1.80000000E+002   9.81753267E-001   8.03800030E-001   9.81728729E-001
   1.85000000E+002   9.82889481E-001   8.03801275E-001   9.82868033E-001
   1.90000000E+002   9.84050734E-001   8.03802328E-001   9.84031922E-001
   1.95000000E+002   9.85086635E-001   8.03803224E-001   9.85070082E-001
   2.00000000E+002   9.86215321E-001   8.03803989E-001   9.86200709E-001
   2.05000000E+002   9.87011099E-001   8.03804647E-001   9.86998163E-001
   2.10000000E+002   9.87771983E-001   8.03805213E-001   9.87760499E-001
   2.15000000E+002   9.88590939E-001   8.03805703E-001   9.88580715E-001
   2.20000000E+002   9.89351280E-001   8.03806128E-001   9.89342156E-001
   2.25000000E+002   9.89956025E-001   8.03806498E-001   9.89947861E-001
   2.30000000E+002   9.90537977E-001   8.03806822E-001   9.90530655E-001
   2.35000000E+002   9.91137999E-001   8.03807106E-001   9.91131417E-001
   2.40000000E+002   9.91671057E-001   8.03807355E-001   9.91665127E-001
   2.45000000E+002   9.92185680E-001   8.03807575E-001   9.92180327E-001
