# ./jetvheto -in n3lo-fixed-order/H125-LHC13-R04-mb-475-mt-1725-xmur025-xmuf025-log.fxd -xQ 0.5 -out benchmarks-n3lo-smallR/H125-LHC13-R04-mb-475-mt-1725-xmur025-xmuf025-xQ050-N3LO+NNLLb.R0-1.5.res -scheme b -order 2 -ptmax 500.01 -fixed_order 3 -small-r -loop-mass t+b -R0 1.5
# process = H    
# collider = pp   
# rts =  13000.000
# M   =    125.000
# muR =     31.250
# muF =     31.250
# Q   =     62.500
# p   =      5.000
# include_c1_squared =   F
# loop_mass  = t+b 
# alphas(MZ) =    0.11800
# alphas(M) =    0.11264
# alphas(muR) =    0.14091
# Rjet =      0.400
# order = NNLL
# pdf name and set = PDF4LHC15_nnlo_mc.LHgrid,    0
# matching scheme = b
# total cross sections [nb] at LO, NLOdiff, NNLOdiff, N3LOdiff =     0.016156    0.025248    0.006043   -0.002471
#----------------------------------------------------------------------
# the lines that follow give the jet-veto efficiencies as a function of pt
#         pt            matched eff      resummed eff     fixed-order eff
   2.00000000E+001   4.84405577E-001   4.75769464E-001   4.73361890E-001
   2.50000000E+001   5.70085536E-001   5.38276821E-001   5.57907042E-001
   3.00000000E+001   6.36956867E-001   5.81663106E-001   6.25013535E-001
   3.50000000E+001   6.90062261E-001   6.11364872E-001   6.79173210E-001
   4.00000000E+001   7.33937389E-001   6.31271869E-001   7.24625035E-001
   4.50000000E+001   7.71024360E-001   6.44190406E-001   7.63371502E-001
   5.00000000E+001   8.01624730E-001   6.52231945E-001   7.95495231E-001
   5.50000000E+001   8.28896082E-001   6.57008823E-001   8.24104927E-001
   6.00000000E+001   8.50902119E-001   6.59712181E-001   8.47184049E-001
   6.50000000E+001   8.67645214E-001   6.61171133E-001   8.64770902E-001
   7.00000000E+001   8.84456636E-001   6.61922824E-001   8.82253257E-001
   7.50000000E+001   8.98686950E-001   6.62291245E-001   8.96997862E-001
   8.00000000E+001   9.10047056E-001   6.62460322E-001   9.08743249E-001
   8.50000000E+001   9.21005874E-001   6.62529337E-001   9.19995203E-001
   9.00000000E+001   9.30538497E-001   6.62550063E-001   9.29749497E-001
   9.50000000E+001   9.36691371E-001   6.62548764E-001   9.36069876E-001
   1.00000000E+002   9.44728511E-001   6.62538424E-001   9.44236164E-001
   1.05000000E+002   9.50236835E-001   6.62525265E-001   9.49843066E-001
   1.10000000E+002   9.56516611E-001   6.62512123E-001   9.56199645E-001
   1.15000000E+002   9.61730871E-001   6.62500166E-001   9.61473671E-001
   1.20000000E+002   9.65469716E-001   6.62489767E-001   9.65259433E-001
   1.25000000E+002   9.68628893E-001   6.62480935E-001   9.68455876E-001
   1.30000000E+002   9.72250200E-001   6.62473528E-001   9.72106942E-001
   1.35000000E+002   9.75022328E-001   6.62467354E-001   9.74902930E-001
   1.40000000E+002   9.77726885E-001   6.62462222E-001   9.77626842E-001
   1.45000000E+002   9.80240162E-001   6.62457957E-001   9.80155857E-001
   1.50000000E+002   9.82296313E-001   6.62454407E-001   9.82224912E-001
   1.55000000E+002   9.84203582E-001   6.62451445E-001   9.84142813E-001
   1.60000000E+002   9.86444984E-001   6.62448967E-001   9.86393034E-001
   1.65000000E+002   9.87805532E-001   6.62446887E-001   9.87760899E-001
   1.70000000E+002   9.88838596E-001   6.62445135E-001   9.88800097E-001
   1.75000000E+002   9.90465799E-001   6.62443654E-001   9.90432465E-001
   1.80000000E+002   9.91271578E-001   6.62442397E-001   9.91242596E-001
   1.85000000E+002   9.92478980E-001   6.62441327E-001   9.92453704E-001
   1.90000000E+002   9.93291677E-001   6.62440413E-001   9.93269549E-001
   1.95000000E+002   9.94303793E-001   6.62439628E-001   9.94284359E-001
   2.00000000E+002   9.94859551E-001   6.62438954E-001   9.94842428E-001
   2.05000000E+002   9.95447506E-001   6.62438371E-001   9.95432372E-001
   2.10000000E+002   9.95969547E-001   6.62437866E-001   9.95956133E-001
   2.15000000E+002   9.96722318E-001   6.62437428E-001   9.96710401E-001
   2.20000000E+002   9.97098547E-001   6.62437046E-001   9.97087928E-001
   2.25000000E+002   9.97677000E-001   6.62436712E-001   9.97667515E-001
   2.30000000E+002   9.98001433E-001   6.62436419E-001   9.97992941E-001
   2.35000000E+002   9.98150200E-001   6.62436162E-001   9.98142577E-001
   2.40000000E+002   9.98594596E-001   6.62435935E-001   9.98587740E-001
   2.45000000E+002   9.98916794E-001   6.62435735E-001   9.98910616E-001
