# ./jetvheto -in n3lo-fixed-order/H125-LHC13-R04-mb-0-mt-1725-xmur100-xmuf100-log.fxd -xQ 0.333 -out benchmarks-n3lo-smallR/H125-LHC13-R04-mb-0-mt-1725-xmur100-xmuf100-xQ033-NNLO+NNLLb.res -scheme b -order 2 -ptmax 500.01 -fixed_order 2 -loop-mass t
# process = H    
# collider = pp   
# rts =  13000.000
# M   =    125.000
# muR =    125.000
# muF =    125.000
# Q   =     41.625
# p   =      5.000
# include_c1_squared =   F
# loop_mass  = t   
# alphas(MZ) =    0.11800
# alphas(M) =    0.11264
# alphas(muR) =    0.11264
# Rjet =      0.400
# order = NNLL
# pdf name and set = PDF4LHC15_nnlo_mc.LHgrid,    0
# matching scheme = b
# total cross sections [nb] at LO, NLOdiff, NNLOdiff, N3LOdiff =     0.013801    0.017514    0.010146    0.003834
#----------------------------------------------------------------------
# the lines that follow give the jet-veto efficiencies as a function of pt
#         pt            matched eff      resummed eff     fixed-order eff
   2.00000000E+001   4.17007024E-001   5.25972703E-001   3.54033455E-001
   2.50000000E+001   4.99606513E-001   6.06659715E-001   4.61286580E-001
   3.00000000E+001   5.66926563E-001   6.61135482E-001   5.43462220E-001
   3.50000000E+001   6.22847623E-001   6.96370647E-001   6.08508831E-001
   4.00000000E+001   6.69948000E-001   7.18208424E-001   6.61203589E-001
   4.50000000E+001   7.09769354E-001   7.31346387E-001   7.04404447E-001
   5.00000000E+001   7.43834176E-001   7.39171675E-001   7.40494892E-001
   5.50000000E+001   7.73012786E-001   7.43868744E-001   7.70889733E-001
   6.00000000E+001   7.98256530E-001   7.46742326E-001   7.96874542E-001
   6.50000000E+001   8.20129257E-001   7.48543906E-001   8.19206785E-001
   7.00000000E+001   8.39040345E-001   7.49703181E-001   8.38409214E-001
   7.50000000E+001   8.55672215E-001   7.50468398E-001   8.55230292E-001
   8.00000000E+001   8.70278485E-001   7.50985757E-001   8.69962422E-001
   8.50000000E+001   8.83054261E-001   7.51343361E-001   8.82823656E-001
   9.00000000E+001   8.94380398E-001   7.51595585E-001   8.94209219E-001
   9.50000000E+001   9.04359174E-001   7.51776785E-001   9.04230001E-001
   1.00000000E+002   9.13266848E-001   7.51909157E-001   9.13167919E-001
   1.05000000E+002   9.21211333E-001   7.52007345E-001   9.21134551E-001
   1.10000000E+002   9.28231790E-001   7.52081195E-001   9.28171457E-001
   1.15000000E+002   9.34601569E-001   7.52137452E-001   9.34553636E-001
   1.20000000E+002   9.40282696E-001   7.52180810E-001   9.40244216E-001
   1.25000000E+002   9.45420647E-001   7.52214587E-001   9.45389469E-001
   1.30000000E+002   9.50068029E-001   7.52241163E-001   9.50042546E-001
   1.35000000E+002   9.54249411E-001   7.52262265E-001   9.54228420E-001
   1.40000000E+002   9.58030593E-001   7.52279163E-001   9.58013167E-001
   1.45000000E+002   9.61507179E-001   7.52292803E-001   9.61492620E-001
   1.50000000E+002   9.64607824E-001   7.52303894E-001   9.64595577E-001
   1.55000000E+002   9.67475294E-001   7.52312974E-001   9.67464933E-001
   1.60000000E+002   9.70093730E-001   7.52320457E-001   9.70084916E-001
   1.65000000E+002   9.72463185E-001   7.52326660E-001   9.72455647E-001
   1.70000000E+002   9.74640838E-001   7.52331832E-001   9.74634361E-001
   1.75000000E+002   9.76597936E-001   7.52336167E-001   9.76592344E-001
   1.80000000E+002   9.78413427E-001   7.52339819E-001   9.78408580E-001
   1.85000000E+002   9.80060076E-001   7.52342910E-001   9.80055856E-001
   1.90000000E+002   9.81585511E-001   7.52345538E-001   9.81581823E-001
   1.95000000E+002   9.82996038E-001   7.52347782E-001   9.82992805E-001
   2.00000000E+002   9.84273831E-001   7.52349707E-001   9.84270986E-001
   2.05000000E+002   9.85467139E-001   7.52351363E-001   9.85464627E-001
   2.10000000E+002   9.86545559E-001   7.52352793E-001   9.86543334E-001
   2.15000000E+002   9.87529376E-001   7.52354034E-001   9.87527400E-001
   2.20000000E+002   9.88452663E-001   7.52355112E-001   9.88450903E-001
   2.25000000E+002   9.89297181E-001   7.52356053E-001   9.89295609E-001
   2.30000000E+002   9.90079232E-001   7.52356877E-001   9.90077825E-001
   2.35000000E+002   9.90812914E-001   7.52357600E-001   9.90811652E-001
   2.40000000E+002   9.91471027E-001   7.52358236E-001   9.91469891E-001
   2.45000000E+002   9.92090243E-001   7.52358797E-001   9.92089219E-001
