# ./jetvheto -in n3lo-fixed-order/H125-LHC13-R04-mb-475-mt-1725-xmur050-xmuf050-log.fxd -xQ 0.125 -out benchmarks-n3lo-smallR/H125-LHC13-R04-mb-475-mt-1725-xmur050-xmuf050-xQ0125-N3LO+NNLLb.R0-1.5.res -scheme b -order 2 -ptmax 500.01 -fixed_order 3 -small-r -loop-mass t+b -R0 1.5
# process = H    
# collider = pp   
# rts =  13000.000
# M   =    125.000
# muR =     62.500
# muF =     62.500
# Q   =     15.625
# p   =      5.000
# include_c1_squared =   F
# loop_mass  = t+b 
# alphas(MZ) =    0.11800
# alphas(M) =    0.11264
# alphas(muR) =    0.12516
# Rjet =      0.400
# order = NNLL
# pdf name and set = PDF4LHC15_nnlo_mc.LHgrid,    0
# matching scheme = b
# total cross sections [nb] at LO, NLOdiff, NNLOdiff, N3LOdiff =     0.014147    0.020254    0.008998    0.001413
#----------------------------------------------------------------------
# the lines that follow give the jet-veto efficiencies as a function of pt
#         pt            matched eff      resummed eff     fixed-order eff
   2.00000000E+001   4.23801725E-001   4.21865208E-001   4.22880362E-001
   2.50000000E+001   5.11136675E-001   4.35674590E-001   5.10871357E-001
   3.00000000E+001   5.86601120E-001   4.40174715E-001   5.86554172E-001
   3.50000000E+001   6.46973987E-001   4.41861013E-001   6.46974526E-001
   4.00000000E+001   6.94047611E-001   4.42578513E-001   6.94053894E-001
   4.50000000E+001   7.35563885E-001   4.42916910E-001   7.35572065E-001
   5.00000000E+001   7.68978268E-001   4.43090222E-001   7.68984657E-001
   5.50000000E+001   7.98067267E-001   4.43185108E-001   7.98072300E-001
   6.00000000E+001   8.22054327E-001   4.43239986E-001   8.22057983E-001
   6.50000000E+001   8.44157572E-001   4.43273211E-001   8.44160448E-001
   7.00000000E+001   8.61395365E-001   4.43294121E-001   8.61397413E-001
   7.50000000E+001   8.76788199E-001   4.43307726E-001   8.76789719E-001
   8.00000000E+001   8.90690792E-001   4.43316837E-001   8.90691953E-001
   8.50000000E+001   9.03049466E-001   4.43323092E-001   9.03050366E-001
   9.00000000E+001   9.13895773E-001   4.43327484E-001   9.13896477E-001
   9.50000000E+001   9.22639045E-001   4.43330629E-001   9.22639584E-001
   1.00000000E+002   9.30923649E-001   4.43332922E-001   9.30924075E-001
   1.05000000E+002   9.37618625E-001   4.43334619E-001   9.37618957E-001
   1.10000000E+002   9.43720652E-001   4.43335894E-001   9.43720915E-001
   1.15000000E+002   9.49501878E-001   4.43336864E-001   9.49502090E-001
   1.20000000E+002   9.54678695E-001   4.43337611E-001   9.54678868E-001
   1.25000000E+002   9.59003677E-001   4.43338193E-001   9.59003817E-001
   1.30000000E+002   9.62763997E-001   4.43338651E-001   9.62764111E-001
   1.35000000E+002   9.66490362E-001   4.43339014E-001   9.66490458E-001
   1.40000000E+002   9.69880619E-001   4.43339304E-001   9.69880698E-001
   1.45000000E+002   9.72807293E-001   4.43339539E-001   9.72807360E-001
   1.50000000E+002   9.75102850E-001   4.43339730E-001   9.75102905E-001
   1.55000000E+002   9.77708720E-001   4.43339886E-001   9.77708768E-001
   1.60000000E+002   9.80038750E-001   4.43340015E-001   9.80038790E-001
   1.65000000E+002   9.81490577E-001   4.43340121E-001   9.81490611E-001
   1.70000000E+002   9.83324287E-001   4.43340210E-001   9.83324317E-001
   1.75000000E+002   9.85049268E-001   4.43340285E-001   9.85049293E-001
   1.80000000E+002   9.86367543E-001   4.43340347E-001   9.86367565E-001
   1.85000000E+002   9.87583941E-001   4.43340401E-001   9.87583960E-001
   1.90000000E+002   9.88819852E-001   4.43340446E-001   9.88819869E-001
   1.95000000E+002   9.89958217E-001   4.43340484E-001   9.89958231E-001
   2.00000000E+002   9.90961396E-001   4.43340517E-001   9.90961409E-001
   2.05000000E+002   9.91762715E-001   4.43340546E-001   9.91762726E-001
   2.10000000E+002   9.92560870E-001   4.43340570E-001   9.92560879E-001
   2.15000000E+002   9.93188160E-001   4.43340592E-001   9.93188169E-001
   2.20000000E+002   9.94072428E-001   4.43340610E-001   9.94072436E-001
   2.25000000E+002   9.94534051E-001   4.43340626E-001   9.94534058E-001
   2.30000000E+002   9.95094691E-001   4.43340641E-001   9.95094697E-001
   2.35000000E+002   9.95512522E-001   4.43340653E-001   9.95512527E-001
   2.40000000E+002   9.95960631E-001   4.43340664E-001   9.95960635E-001
   2.45000000E+002   9.96474553E-001   4.43340674E-001   9.96474558E-001
