# ./jetvheto -in n3lo-fixed-order/H125-LHC13-R04-heft-xmur050-xmuf050-log.fxd -xQ 1.00 -out benchmarks-n3lo-smallR/H125-LHC13-R04-heft-xmur050-xmuf050-xQ100-NNLO+NNLLb.res -scheme b -order 2 -ptmax 500.01 -fixed_order 2
# process = H    
# collider = pp   
# rts =  13000.000
# M   =    125.000
# muR =     62.500
# muF =     62.500
# Q   =    125.000
# p   =      5.000
# include_c1_squared =   F
# loop_mass  = none
# alphas(MZ) =    0.11800
# alphas(M) =    0.11264
# alphas(muR) =    0.12516
# Rjet =      0.400
# order = NNLL
# pdf name and set = PDF4LHC15_nnlo_mc.LHgrid,    0
# matching scheme = b
# total cross sections [nb] at LO, NLOdiff, NNLOdiff, N3LOdiff =     0.015055    0.019611    0.008998    0.001413
#----------------------------------------------------------------------
# the lines that follow give the jet-veto efficiencies as a function of pt
#         pt            matched eff      resummed eff     fixed-order eff
   2.00000000E+001   4.64896376E-001   5.91506781E-001   3.20844325E-001
   2.50000000E+001   5.46849967E-001   6.75930528E-001   4.29272444E-001
   3.00000000E+001   6.12579862E-001   7.34201982E-001   5.13978769E-001
   3.50000000E+001   6.65720735E-001   7.74023913E-001   5.81442017E-001
   4.00000000E+001   7.09520254E-001   8.00727668E-001   6.36470582E-001
   4.50000000E+001   7.45984186E-001   8.17943590E-001   6.82049408E-001
   5.00000000E+001   7.76631385E-001   8.28213232E-001   7.20304754E-001
   5.50000000E+001   8.02546581E-001   8.33366079E-001   7.52707770E-001
   6.00000000E+001   8.24491137E-001   8.34735587E-001   7.80293093E-001
   6.50000000E+001   8.43343281E-001   8.33321102E-001   8.04094553E-001
   7.00000000E+001   8.59673250E-001   8.29888930E-001   8.24799203E-001
   7.50000000E+001   8.73644691E-001   8.25029597E-001   8.42689242E-001
   8.00000000E+001   8.85852975E-001   8.19208850E-001   8.58403155E-001
   8.50000000E+001   8.96550230E-001   8.12800632E-001   8.72248607E-001
   9.00000000E+001   9.05962063E-001   8.06105950E-001   8.84490214E-001
   9.50000000E+001   9.14163493E-001   7.99364616E-001   8.95243884E-001
   1.00000000E+002   9.21456625E-001   7.92765867E-001   9.04822178E-001
   1.05000000E+002   9.27884399E-001   7.86452779E-001   9.13297358E-001
   1.10000000E+002   9.33676662E-001   7.80527416E-001   9.20909416E-001
   1.15000000E+002   9.38848546E-001   7.75056321E-001   9.27694941E-001
   1.20000000E+002   9.43542110E-001   7.70074157E-001   9.33811268E-001
   1.25000000E+002   9.47803681E-001   7.65590435E-001   9.39322340E-001
   1.30000000E+002   9.51637288E-001   7.61595283E-001   9.44251399E-001
   1.35000000E+002   9.55167614E-001   7.58064692E-001   9.48735691E-001
   1.40000000E+002   9.58400120E-001   7.54965390E-001   9.52797807E-001
   1.45000000E+002   9.61321306E-001   7.52258930E-001   9.56439457E-001
   1.50000000E+002   9.64045056E-001   7.49904891E-001   9.59786275E-001
   1.55000000E+002   9.66523760E-001   7.47863220E-001   9.62804347E-001
   1.60000000E+002   9.68832971E-001   7.46095805E-001   9.65579670E-001
   1.65000000E+002   9.70931995E-001   7.44567386E-001   9.68082008E-001
   1.70000000E+002   9.72899341E-001   7.43246136E-001   9.70397828E-001
   1.75000000E+002   9.74732642E-001   7.42103772E-001   9.72532555E-001
   1.80000000E+002   9.76399194E-001   7.41115409E-001   9.74460602E-001
   1.85000000E+002   9.77951659E-001   7.40259389E-001   9.76239797E-001
   1.90000000E+002   9.79395486E-001   7.39516990E-001   9.77880551E-001
   1.95000000E+002   9.80718729E-001   7.38872112E-001   9.79375286E-001
   2.00000000E+002   9.81948572E-001   7.38310956E-001   9.80754640E-001
   2.05000000E+002   9.83106158E-001   7.37821727E-001   9.82042753E-001
   2.10000000E+002   9.84162404E-001   7.37394356E-001   9.83213352E-001
   2.15000000E+002   9.85160960E-001   7.37020252E-001   9.84312105E-001
   2.20000000E+002   9.86090201E-001   7.36692090E-001   9.85329407E-001
   2.25000000E+002   9.86924647E-001   7.36403616E-001   9.86241514E-001
   2.30000000E+002   9.87756601E-001   7.36149493E-001   9.87141826E-001
   2.35000000E+002   9.88489845E-001   7.35925157E-001   9.87935633E-001
   2.40000000E+002   9.89188387E-001   7.35726699E-001   9.88687810E-001
   2.45000000E+002   9.89839959E-001   7.35550772E-001   9.89386996E-001
