# ./jetvheto -in n3lo-fixed-order/H125-LHC13-R04-heft-xmur100-xmuf100-log.fxd -xQ 0.25 -out benchmarks-n3lo-smallR/H125-LHC13-R04-heft-xmur100-xmuf100-xQ025-N3LO+NNLLa.R0-0.5.res -scheme a -order 2 -ptmax 500.01 -fixed_order 3 -small-r -R0 0.5
# process = H    
# collider = pp   
# rts =  13000.000
# M   =    125.000
# muR =    125.000
# muF =    125.000
# Q   =     31.250
# p   =      5.000
# include_c1_squared =   F
# loop_mass  = none
# alphas(MZ) =    0.11800
# alphas(M) =    0.11264
# alphas(muR) =    0.11264
# Rjet =      0.400
# order = NNLL
# pdf name and set = PDF4LHC15_nnlo_mc.LHgrid,    0
# matching scheme = a
# total cross sections [nb] at LO, NLOdiff, NNLOdiff, N3LOdiff =     0.012945    0.016716    0.010146    0.003834
#----------------------------------------------------------------------
# the lines that follow give the jet-veto efficiencies as a function of pt
#         pt            matched eff      resummed eff     fixed-order eff
   2.00000000E+001   4.57894754E-001   5.35342202E-001   4.60774143E-001
   2.50000000E+001   5.43438997E-001   6.07742247E-001   5.45786875E-001
   3.00000000E+001   6.15201189E-001   6.50324888E-001   6.17068533E-001
   3.50000000E+001   6.70898796E-001   6.73496215E-001   6.72113648E-001
   4.00000000E+001   7.15895887E-001   6.85666863E-001   7.16667414E-001
   4.50000000E+001   7.52381654E-001   6.92098475E-001   7.52873009E-001
   5.00000000E+001   7.83238713E-001   6.95601716E-001   7.83562730E-001
   5.50000000E+001   8.09563698E-001   6.97586590E-001   8.09784074E-001
   6.00000000E+001   8.31719042E-001   6.98757497E-001   8.31871310E-001
   6.50000000E+001   8.51490709E-001   6.99474885E-001   8.51599627E-001
   7.00000000E+001   8.68140397E-001   6.99929733E-001   8.68219188E-001
   7.50000000E+001   8.81958628E-001   7.00227074E-001   8.82015993E-001
   8.00000000E+001   8.94082563E-001   7.00426804E-001   8.94125116E-001
   8.50000000E+001   9.05036946E-001   7.00564247E-001   9.05069202E-001
   9.00000000E+001   9.14399941E-001   7.00660887E-001   9.14424589E-001
   9.50000000E+001   9.22964610E-001   7.00730160E-001   9.22983790E-001
   1.00000000E+002   9.30107634E-001   7.00780686E-001   9.30122626E-001
   1.05000000E+002   9.36517556E-001   7.00818119E-001   9.36529413E-001
   1.10000000E+002   9.42307634E-001   7.00846250E-001   9.42317122E-001
   1.15000000E+002   9.47491341E-001   7.00867664E-001   9.47498999E-001
   1.20000000E+002   9.52006461E-001   7.00884160E-001   9.52012685E-001
   1.25000000E+002   9.55908115E-001   7.00897006E-001   9.55913202E-001
   1.30000000E+002   9.59808996E-001   7.00907110E-001   9.59813209E-001
   1.35000000E+002   9.63251180E-001   7.00915131E-001   9.63254687E-001
   1.40000000E+002   9.66123854E-001   7.00921553E-001   9.66126784E-001
   1.45000000E+002   9.68887028E-001   7.00926736E-001   9.68889494E-001
   1.50000000E+002   9.71223273E-001   7.00930949E-001   9.71225357E-001
   1.55000000E+002   9.73730027E-001   7.00934399E-001   9.73731807E-001
   1.60000000E+002   9.75442834E-001   7.00937241E-001   9.75444349E-001
   1.65000000E+002   9.77281986E-001   7.00939597E-001   9.77283286E-001
   1.70000000E+002   9.78903500E-001   7.00941561E-001   9.78904621E-001
   1.75000000E+002   9.80484876E-001   7.00943208E-001   9.80485847E-001
   1.80000000E+002   9.81940344E-001   7.00944594E-001   9.81941189E-001
   1.85000000E+002   9.83250388E-001   7.00945768E-001   9.83251126E-001
   1.90000000E+002   9.84169880E-001   7.00946766E-001   9.84170523E-001
   1.95000000E+002   9.85361747E-001   7.00947619E-001   9.85362313E-001
   2.00000000E+002   9.86382906E-001   7.00948349E-001   9.86383405E-001
   2.05000000E+002   9.87259624E-001   7.00948978E-001   9.87260065E-001
   2.10000000E+002   9.88055904E-001   7.00949521E-001   9.88056295E-001
   2.15000000E+002   9.88933877E-001   7.00949992E-001   9.88934225E-001
   2.20000000E+002   9.89579427E-001   7.00950402E-001   9.89579737E-001
   2.25000000E+002   9.90260875E-001   7.00950759E-001   9.90261153E-001
   2.30000000E+002   9.90900672E-001   7.00951072E-001   9.90900921E-001
   2.35000000E+002   9.91501582E-001   7.00951346E-001   9.91501805E-001
   2.40000000E+002   9.91923059E-001   7.00951588E-001   9.91923260E-001
   2.45000000E+002   9.92472830E-001   7.00951801E-001   9.92473011E-001
