# ./jetvheto -in n3lo-fixed-order/H125-LHC13-R04-mb-475-mt-1725-xmur050-xmuf050-log.fxd -xQ 0.333 -out benchmarks-n3lo-smallR/H125-LHC13-R04-mb-475-mt-1725-xmur050-xmuf050-xQ033-NNLO+NNLLa.R0-2.0.res -scheme a -order 2 -ptmax 500.01 -fixed_order 2 -small-r -loop-mass t+b -R0 2.0
# process = H    
# collider = pp   
# rts =  13000.000
# M   =    125.000
# muR =     62.500
# muF =     62.500
# Q   =     41.625
# p   =      5.000
# include_c1_squared =   F
# loop_mass  = t+b 
# alphas(MZ) =    0.11800
# alphas(M) =    0.11264
# alphas(muR) =    0.12516
# Rjet =      0.400
# order = NNLL
# pdf name and set = PDF4LHC15_nnlo_mc.LHgrid,    0
# matching scheme = a
# total cross sections [nb] at LO, NLOdiff, NNLOdiff, N3LOdiff =     0.014147    0.020254    0.008998    0.001413
#----------------------------------------------------------------------
# the lines that follow give the jet-veto efficiencies as a function of pt
#         pt            matched eff      resummed eff     fixed-order eff
   2.00000000E+001   4.52961817E-001   4.72220638E-001   4.51585809E-001
   2.50000000E+001   5.38303063E-001   5.42881521E-001   5.37845647E-001
   3.00000000E+001   6.06209009E-001   5.90743567E-001   6.05618957E-001
   3.50000000E+001   6.60840500E-001   6.21798740E-001   6.60103954E-001
   4.00000000E+001   7.05320877E-001   6.41107870E-001   7.04623301E-001
   4.50000000E+001   7.42387411E-001   6.52757568E-001   7.41826274E-001
   5.00000000E+001   7.73564103E-001   6.59711188E-001   7.73153273E-001
   5.50000000E+001   7.99988949E-001   6.63891181E-001   7.99700298E-001
   6.00000000E+001   8.22653926E-001   6.66450874E-001   8.22453602E-001
   6.50000000E+001   8.42202786E-001   6.68056740E-001   8.42063586E-001
   7.00000000E+001   8.59275021E-001   6.69090539E-001   8.59177351E-001
   7.50000000E+001   8.74055888E-001   6.69773138E-001   8.73986041E-001
   8.00000000E+001   8.87082027E-001   6.70234735E-001   8.87031290E-001
   8.50000000E+001   8.98599205E-001   6.70553841E-001   8.98561694E-001
   9.00000000E+001   9.08704398E-001   6.70778934E-001   9.08676257E-001
   9.50000000E+001   9.17608565E-001   6.70940655E-001   9.17587048E-001
   1.00000000E+002   9.25576319E-001   6.71058803E-001   9.25559652E-001
   1.05000000E+002   9.32655028E-001   6.71146443E-001   9.32641906E-001
   1.10000000E+002   9.38949801E-001   6.71212362E-001   9.38939368E-001
   1.15000000E+002   9.44620011E-001   6.71262579E-001   9.44611611E-001
   1.20000000E+002   9.49692795E-001   6.71301282E-001   9.49685968E-001
   1.25000000E+002   9.54302309E-001   6.71331433E-001   9.54296709E-001
   1.30000000E+002   9.58399961E-001   6.71355156E-001   9.58395322E-001
   1.35000000E+002   9.62108869E-001   6.71373993E-001   9.62105002E-001
   1.40000000E+002   9.65485632E-001   6.71389078E-001   9.65482383E-001
   1.45000000E+002   9.68527158E-001   6.71401254E-001   9.68524408E-001
   1.50000000E+002   9.71312721E-001   6.71411154E-001   9.71310382E-001
   1.55000000E+002   9.73833723E-001   6.71419260E-001   9.73831721E-001
   1.60000000E+002   9.76120715E-001   6.71425940E-001   9.76118993E-001
   1.65000000E+002   9.78187380E-001   6.71431477E-001   9.78185892E-001
   1.70000000E+002   9.80071344E-001   6.71436094E-001   9.80070053E-001
   1.75000000E+002   9.81816036E-001   6.71439964E-001   9.81814911E-001
   1.80000000E+002   9.83375790E-001   6.71443224E-001   9.83374805E-001
   1.85000000E+002   9.84825375E-001   6.71445983E-001   9.84824510E-001
   1.90000000E+002   9.86145897E-001   6.71448330E-001   9.86145135E-001
   1.95000000E+002   9.87348025E-001   6.71450333E-001   9.87347351E-001
   2.00000000E+002   9.88444161E-001   6.71452051E-001   9.88443563E-001
   2.05000000E+002   9.89455930E-001   6.71453529E-001   9.89455399E-001
   2.10000000E+002   9.90359191E-001   6.71454807E-001   9.90358717E-001
   2.15000000E+002   9.91217375E-001   6.71455914E-001   9.91216951E-001
   2.20000000E+002   9.92004863E-001   6.71456876E-001   9.92004483E-001
   2.25000000E+002   9.92697279E-001   6.71457717E-001   9.92696938E-001
   2.30000000E+002   9.93373942E-001   6.71458452E-001   9.93373635E-001
   2.35000000E+002   9.93963960E-001   6.71459097E-001   9.93963683E-001
   2.40000000E+002   9.94517069E-001   6.71459665E-001   9.94516819E-001
   2.45000000E+002   9.95015870E-001   6.71460166E-001   9.95015643E-001
