# ./jetvheto -in n3lo-fixed-order/H125-LHC13-R04-mb-0-mt-1725-xmur100-xmuf050-log.fxd -xQ 0.0625 -out benchmarks-n3lo-smallR/H125-LHC13-R04-mb-0-mt-1725-xmur100-xmuf050-xQ0625-NNLO+NNLLb.res -scheme b -order 2 -ptmax 500.01 -fixed_order 2 -loop-mass t
# process = H    
# collider = pp   
# rts =  13000.000
# M   =    125.000
# muR =    125.000
# muF =     62.500
# Q   =      7.812
# p   =      5.000
# include_c1_squared =   F
# loop_mass  = t   
# alphas(MZ) =    0.11800
# alphas(M) =    0.11264
# alphas(muR) =    0.11264
# Rjet =      0.400
# order = NNLL
# pdf name and set = PDF4LHC15_nnlo_mc.LHgrid,    0
# matching scheme = b
# total cross sections [nb] at LO, NLOdiff, NNLOdiff, N3LOdiff =     0.012997    0.017347    0.010424    0.004163
#----------------------------------------------------------------------
# the lines that follow give the jet-veto efficiencies as a function of pt
#         pt            matched eff      resummed eff     fixed-order eff
   2.00000000E+001   3.36049896E-001   2.76034996E-001   3.35464478E-001
   2.50000000E+001   4.44726447E-001   2.76547706E-001   4.44581634E-001
   3.00000000E+001   5.28463708E-001   2.76697852E-001   5.28420724E-001
   3.50000000E+001   5.94992323E-001   2.76752136E-001   5.94978134E-001
   4.00000000E+001   6.48882740E-001   2.76774915E-001   6.48877858E-001
   4.50000000E+001   6.93300070E-001   2.76785593E-001   6.93298464E-001
   5.00000000E+001   7.30768517E-001   2.76791046E-001   7.30768118E-001
   5.50000000E+001   7.62009484E-001   2.76794026E-001   7.62009523E-001
   6.00000000E+001   7.88850581E-001   2.76795749E-001   7.88850765E-001
   6.50000000E+001   8.12015159E-001   2.76796791E-001   8.12015374E-001
   7.00000000E+001   8.32071509E-001   2.76797447E-001   8.32071711E-001
   7.50000000E+001   8.49453724E-001   2.76797873E-001   8.49453901E-001
   8.00000000E+001   8.64736923E-001   2.76798159E-001   8.64737072E-001
   8.50000000E+001   8.78228165E-001   2.76798355E-001   8.78228289E-001
   9.00000000E+001   8.90131786E-001   2.76798493E-001   8.90131888E-001
   9.50000000E+001   9.00600525E-001   2.76798591E-001   9.00600609E-001
   1.00000000E+002   9.10023933E-001   2.76798663E-001   9.10024002E-001
   1.05000000E+002   9.18294781E-001   2.76798716E-001   9.18294838E-001
   1.10000000E+002   9.25701053E-001   2.76798756E-001   9.25701100E-001
   1.15000000E+002   9.32369574E-001   2.76798787E-001   9.32369614E-001
   1.20000000E+002   9.38383329E-001   2.76798810E-001   9.38383362E-001
   1.25000000E+002   9.43857304E-001   2.76798828E-001   9.43857332E-001
   1.30000000E+002   9.48710517E-001   2.76798843E-001   9.48710541E-001
   1.35000000E+002   9.53092926E-001   2.76798854E-001   9.53092945E-001
   1.40000000E+002   9.57104702E-001   2.76798863E-001   9.57104719E-001
   1.45000000E+002   9.60768550E-001   2.76798871E-001   9.60768564E-001
   1.50000000E+002   9.64123497E-001   2.76798876E-001   9.64123509E-001
   1.55000000E+002   9.67147627E-001   2.76798881E-001   9.67147638E-001
   1.60000000E+002   9.69903432E-001   2.76798885E-001   9.69903441E-001
   1.65000000E+002   9.72403434E-001   2.76798889E-001   9.72403442E-001
   1.70000000E+002   9.74703449E-001   2.76798892E-001   9.74703456E-001
   1.75000000E+002   9.76789439E-001   2.76798894E-001   9.76789445E-001
   1.80000000E+002   9.78682746E-001   2.76798896E-001   9.78682751E-001
   1.85000000E+002   9.80438722E-001   2.76798898E-001   9.80438727E-001
   1.90000000E+002   9.82044665E-001   2.76798899E-001   9.82044669E-001
   1.95000000E+002   9.83517652E-001   2.76798900E-001   9.83517655E-001
   2.00000000E+002   9.84869342E-001   2.76798901E-001   9.84869345E-001
   2.05000000E+002   9.86107190E-001   2.76798902E-001   9.86107193E-001
   2.10000000E+002   9.87224703E-001   2.76798903E-001   9.87224706E-001
   2.15000000E+002   9.88279224E-001   2.76798903E-001   9.88279226E-001
   2.20000000E+002   9.89244756E-001   2.76798904E-001   9.89244758E-001
   2.25000000E+002   9.90113733E-001   2.76798905E-001   9.90113735E-001
   2.30000000E+002   9.90954066E-001   2.76798905E-001   9.90954068E-001
   2.35000000E+002   9.91687626E-001   2.76798905E-001   9.91687628E-001
   2.40000000E+002   9.92381886E-001   2.76798906E-001   9.92381887E-001
   2.45000000E+002   9.93017353E-001   2.76798906E-001   9.93017355E-001
