# ./jetvheto -in n3lo-fixed-order/H125-LHC13-R04-heft-xmur050-xmuf050-log.fxd -xQ 0.25 -out benchmarks-n3lo-smallR/H125-LHC13-R04-heft-xmur050-xmuf050-xQ025-NNLO+NNLLb.R0-1.5.res -scheme b -order 2 -ptmax 500.01 -fixed_order 2 -small-r -R0 1.5
# process = H    
# collider = pp   
# rts =  13000.000
# M   =    125.000
# muR =     62.500
# muF =     62.500
# Q   =     31.250
# p   =      5.000
# include_c1_squared =   F
# loop_mass  = none
# alphas(MZ) =    0.11800
# alphas(M) =    0.11264
# alphas(muR) =    0.12516
# Rjet =      0.400
# order = NNLL
# pdf name and set = PDF4LHC15_nnlo_mc.LHgrid,    0
# matching scheme = b
# total cross sections [nb] at LO, NLOdiff, NNLOdiff, N3LOdiff =     0.015055    0.019611    0.008998    0.001413
#----------------------------------------------------------------------
# the lines that follow give the jet-veto efficiencies as a function of pt
#         pt            matched eff      resummed eff     fixed-order eff
   2.00000000E+001   3.76794579E-001   4.93253524E-001   3.20844325E-001
   2.50000000E+001   4.58839259E-001   5.61805521E-001   4.29272444E-001
   3.00000000E+001   5.29170476E-001   6.02403744E-001   5.13978769E-001
   3.50000000E+001   5.89244644E-001   6.24609017E-001   5.81442017E-001
   4.00000000E+001   6.40581090E-001   6.36310132E-001   6.36470582E-001
   4.50000000E+001   6.84303184E-001   6.42505129E-001   6.82049408E-001
   5.00000000E+001   7.21596241E-001   6.45883103E-001   7.20304754E-001
   5.50000000E+001   7.53480936E-001   6.47798185E-001   7.52707770E-001
   6.00000000E+001   7.80774931E-001   6.48928330E-001   7.80293093E-001
   6.50000000E+001   8.04405790E-001   6.49620897E-001   8.04094553E-001
   7.00000000E+001   8.25006665E-001   6.50060067E-001   8.24799203E-001
   7.50000000E+001   8.42831651E-001   6.50347185E-001   8.42689242E-001
   8.00000000E+001   8.58503363E-001   6.50540059E-001   8.58403155E-001
   8.50000000E+001   8.72320718E-001   6.50672790E-001   8.72248607E-001
   9.00000000E+001   8.84543152E-001   6.50766119E-001   8.84490214E-001
   9.50000000E+001   8.95283485E-001   6.50833021E-001   8.95243884E-001
   1.00000000E+002   9.04852269E-001   6.50881817E-001   9.04822178E-001
   1.05000000E+002   9.13320576E-001   6.50917970E-001   9.13297358E-001
   1.10000000E+002   9.20927563E-001   6.50945138E-001   9.20909416E-001
   1.15000000E+002   9.27709298E-001   6.50965820E-001   9.27694941E-001
   1.20000000E+002   9.33822751E-001   6.50981752E-001   9.33811268E-001
   1.25000000E+002   9.39331614E-001   6.50994158E-001   9.39322340E-001
   1.30000000E+002   9.44258964E-001   6.51003917E-001   9.44251399E-001
   1.35000000E+002   9.48741911E-001   6.51011663E-001   9.48735691E-001
   1.40000000E+002   9.52802961E-001   6.51017866E-001   9.52797807E-001
   1.45000000E+002   9.56443759E-001   6.51022871E-001   9.56439457E-001
   1.50000000E+002   9.59789891E-001   6.51026941E-001   9.59786275E-001
   1.55000000E+002   9.62807404E-001   6.51030272E-001   9.62804347E-001
   1.60000000E+002   9.65582269E-001   6.51033017E-001   9.65579670E-001
   1.65000000E+002   9.68084231E-001   6.51035293E-001   9.68082008E-001
   1.70000000E+002   9.70399738E-001   6.51037190E-001   9.70397828E-001
   1.75000000E+002   9.72534204E-001   6.51038780E-001   9.72532555E-001
   1.80000000E+002   9.74462032E-001   6.51040119E-001   9.74460602E-001
   1.85000000E+002   9.76241042E-001   6.51041253E-001   9.76239797E-001
   1.90000000E+002   9.77881640E-001   6.51042217E-001   9.77880551E-001
   1.95000000E+002   9.79376241E-001   6.51043040E-001   9.79375286E-001
   2.00000000E+002   9.80755481E-001   6.51043746E-001   9.80754640E-001
   2.05000000E+002   9.82043496E-001   6.51044353E-001   9.82042753E-001
   2.10000000E+002   9.83214011E-001   6.51044878E-001   9.83213352E-001
   2.15000000E+002   9.84312690E-001   6.51045333E-001   9.84312105E-001
   2.20000000E+002   9.85329928E-001   6.51045728E-001   9.85329407E-001
   2.25000000E+002   9.86241980E-001   6.51046073E-001   9.86241514E-001
   2.30000000E+002   9.87142244E-001   6.51046375E-001   9.87141826E-001
   2.35000000E+002   9.87936008E-001   6.51046640E-001   9.87935633E-001
   2.40000000E+002   9.88688148E-001   6.51046874E-001   9.88687810E-001
   2.45000000E+002   9.89387301E-001   6.51047080E-001   9.89386996E-001
