# ./jetvheto -in n3lo-fixed-order/H125-LHC13-R04-mb-475-mt-1725-xmur100-xmuf100-log.fxd -xQ 0.75 -out benchmarks-n3lo-smallR/H125-LHC13-R04-mb-475-mt-1725-xmur100-xmuf100-xQ075-NNLO+NNLLb.R0-0.5.res -scheme b -order 2 -ptmax 500.01 -fixed_order 2 -small-r -loop-mass t+b -R0 0.5
# process = H    
# collider = pp   
# rts =  13000.000
# M   =    125.000
# muR =    125.000
# muF =    125.000
# Q   =     93.750
# p   =      5.000
# include_c1_squared =   F
# loop_mass  = t+b 
# alphas(MZ) =    0.11800
# alphas(M) =    0.11264
# alphas(muR) =    0.11264
# Rjet =      0.400
# order = NNLL
# pdf name and set = PDF4LHC15_nnlo_mc.LHgrid,    0
# matching scheme = b
# total cross sections [nb] at LO, NLOdiff, NNLOdiff, N3LOdiff =     0.012292    0.016994    0.010146    0.003834
#----------------------------------------------------------------------
# the lines that follow give the jet-veto efficiencies as a function of pt
#         pt            matched eff      resummed eff     fixed-order eff
   2.00000000E+001   4.08672195E-001   5.23074209E-001   3.17550639E-001
   2.50000000E+001   4.95297200E-001   6.06636375E-001   4.27790656E-001
   3.00000000E+001   5.66263517E-001   6.66041412E-001   5.12989288E-001
   3.50000000E+001   6.24997733E-001   7.07945306E-001   5.80985186E-001
   4.00000000E+001   6.73636484E-001   7.37100736E-001   6.36189278E-001
   4.50000000E+001   7.14307267E-001   7.56898656E-001   6.81851830E-001
   5.00000000E+001   7.48541354E-001   7.69777093E-001   7.20147070E-001
   5.50000000E+001   7.77391889E-001   7.77544144E-001   7.52478916E-001
   6.00000000E+001   8.02093580E-001   7.81572524E-001   7.80255597E-001
   6.50000000E+001   8.23274318E-001   7.82928765E-001   8.04204225E-001
   7.00000000E+001   8.41475206E-001   7.82450185E-001   8.24914709E-001
   7.50000000E+001   8.57232558E-001   7.80791553E-001   8.42942328E-001
   8.00000000E+001   8.71080325E-001   7.78457502E-001   8.58824881E-001
   8.50000000E+001   8.83132546E-001   7.75822499E-001   8.72688093E-001
   9.00000000E+001   8.93913622E-001   7.73149528E-001   8.85054448E-001
   9.50000000E+001   9.03414098E-001   7.70607851E-001   8.95930965E-001
   1.00000000E+002   9.11908342E-001   7.68293494E-001   9.05604482E-001
   1.05000000E+002   9.19575910E-001   7.66249107E-001   9.14272722E-001
   1.10000000E+002   9.26375685E-001   7.64481623E-001   9.21917006E-001
   1.15000000E+002   9.32599922E-001   7.62976489E-001   9.28847935E-001
   1.20000000E+002   9.38140567E-001   7.61707861E-001   9.34979383E-001
   1.25000000E+002   9.43260912E-001   7.60645672E-001   9.40591281E-001
   1.30000000E+002   9.47891403E-001   7.59759791E-001   9.45631198E-001
   1.35000000E+002   9.52129852E-001   7.59022296E-001   9.50210516E-001
   1.40000000E+002   9.55947874E-001   7.58408486E-001   9.54313076E-001
   1.45000000E+002   9.59505019E-001   7.57897156E-001   9.58107610E-001
   1.50000000E+002   9.62688648E-001   7.57470448E-001   9.61490343E-001
   1.55000000E+002   9.65649056E-001   7.57113515E-001   9.64617823E-001
   1.60000000E+002   9.68336737E-001   7.56814113E-001   9.67446259E-001
   1.65000000E+002   9.70801116E-001   7.56562196E-001   9.70029596E-001
   1.70000000E+002   9.73069780E-001   7.56349539E-001   9.72399079E-001
   1.75000000E+002   9.75123308E-001   7.56169419E-001   9.74538410E-001
   1.80000000E+002   9.77019173E-001   7.56016336E-001   9.76507469E-001
   1.85000000E+002   9.78754349E-001   7.55885785E-001   9.78305324E-001
   1.90000000E+002   9.80355241E-001   7.55774071E-001   9.79960040E-001
   1.95000000E+002   9.81852930E-001   7.55678157E-001   9.81504081E-001
   2.00000000E+002   9.83210060E-001   7.55595538E-001   9.82901295E-001
   2.05000000E+002   9.84473471E-001   7.55524143E-001   9.84199444E-001
   2.10000000E+002   9.85627508E-001   7.55462256E-001   9.85383694E-001
   2.15000000E+002   9.86668214E-001   7.55408446E-001   9.86450755E-001
   2.20000000E+002   9.87652100E-001   7.55361524E-001   9.87457670E-001
   2.25000000E+002   9.88552676E-001   7.55320491E-001   9.88378441E-001
   2.30000000E+002   9.89383916E-001   7.55284509E-001   9.89227429E-001
   2.35000000E+002   9.90162480E-001   7.55252873E-001   9.90021629E-001
   2.40000000E+002   9.90861795E-001   7.55224986E-001   9.90734762E-001
   2.45000000E+002   9.91525839E-001   7.55200343E-001   9.91411035E-001
