# ./jetvheto -in n3lo-fixed-order/H125-LHC13-R04-mb-0-mt-1725-xmur050-xmuf050-log.fxd -xQ 1.0 -out benchmarks-n3lo-smallR/H125-LHC13-R04-mb-0-mt-1725-xmur050-xmuf050-xQ100-NNLO+NNLLb.R0-1.5.res -scheme b -order 2 -ptmax 500.01 -small-r -fixed_order 2 -loop-mass t -R0 1.5
# process = H    
# collider = pp   
# rts =  13000.000
# M   =    125.000
# muR =     62.500
# muF =     62.500
# Q   =    125.000
# p   =      5.000
# include_c1_squared =   F
# loop_mass  = t   
# alphas(MZ) =    0.11800
# alphas(M) =    0.11264
# alphas(muR) =    0.12516
# Rjet =      0.400
# order = NNLL
# pdf name and set = PDF4LHC15_nnlo_mc.LHgrid,    0
# matching scheme = b
# total cross sections [nb] at LO, NLOdiff, NNLOdiff, N3LOdiff =     0.015885    0.020561    0.008998    0.001413
#----------------------------------------------------------------------
# the lines that follow give the jet-veto efficiencies as a function of pt
#         pt            matched eff      resummed eff     fixed-order eff
   2.00000000E+001   5.18092130E-001   6.44541875E-001   3.37968833E-001
   2.50000000E+001   5.94027580E-001   7.19472866E-001   4.45490403E-001
   3.00000000E+001   6.54110287E-001   7.70276422E-001   5.29094091E-001
   3.50000000E+001   7.02665606E-001   8.04253432E-001   5.95850260E-001
   4.00000000E+001   7.42361722E-001   8.26357018E-001   6.50115846E-001
   4.50000000E+001   7.75210399E-001   8.39918764E-001   6.94939270E-001
   5.00000000E+001   8.03034102E-001   8.47257316E-001   7.32769177E-001
   5.50000000E+001   8.26034470E-001   8.50037757E-001   7.64361916E-001
   6.00000000E+001   8.45734611E-001   8.49471478E-001   7.91465371E-001
   6.50000000E+001   8.62654896E-001   8.46466529E-001   8.14838120E-001
   7.00000000E+001   8.77230812E-001   8.41720145E-001   8.35078651E-001
   7.50000000E+001   8.89704506E-001   8.35769827E-001   8.52570605E-001
   8.00000000E+001   9.00628873E-001   8.29040161E-001   8.67937405E-001
   8.50000000E+001   9.10223496E-001   8.21872752E-001   8.81478135E-001
   9.00000000E+001   9.18646377E-001   8.14542862E-001   8.93411828E-001
   9.50000000E+001   9.25970774E-001   8.07269533E-001   9.03868009E-001
   1.00000000E+002   9.32595786E-001   8.00225055E-001   9.13265993E-001
   1.05000000E+002   9.38355527E-001   7.93538520E-001   9.21489390E-001
   1.10000000E+002   9.43542137E-001   7.87300343E-001   9.28847842E-001
   1.15000000E+002   9.48236630E-001   7.81567304E-001   9.35451292E-001
   1.20000000E+002   9.52507331E-001   7.76365837E-001   9.41393487E-001
   1.25000000E+002   9.56446496E-001   7.71698511E-001   9.46790455E-001
   1.30000000E+002   9.59940851E-001   7.67549599E-001   9.51556334E-001
   1.35000000E+002   9.63144317E-001   7.63890159E-001   9.55862035E-001
   1.40000000E+002   9.66117228E-001   7.60682776E-001   9.59788706E-001
   1.45000000E+002   9.68861128E-001   7.57885533E-001   9.63356960E-001
   1.50000000E+002   9.71417159E-001   7.55455112E-001   9.66623739E-001
   1.55000000E+002   9.73739455E-001   7.53349047E-001   9.69559478E-001
   1.60000000E+002   9.75879188E-001   7.51527224E-001   9.72228153E-001
   1.65000000E+002   9.77833753E-001   7.49952721E-001   9.74639208E-001
   1.70000000E+002   9.79657924E-001   7.48592335E-001   9.76857081E-001
   1.75000000E+002   9.81330436E-001   7.47416645E-001   9.78869658E-001
   1.80000000E+002   9.82848781E-001   7.46399823E-001   9.80682463E-001
   1.85000000E+002   9.84273139E-001   7.45519430E-001   9.82361728E-001
   1.90000000E+002   9.85587093E-001   7.44756097E-001   9.83896830E-001
   1.95000000E+002   9.86794915E-001   7.44093186E-001   9.85296972E-001
   2.00000000E+002   9.87908793E-001   7.43516453E-001   9.86578358E-001
   2.05000000E+002   9.88936955E-001   7.43013728E-001   9.87752669E-001
   2.10000000E+002   9.89860811E-001   7.42574631E-001   9.88804449E-001
   2.15000000E+002   9.90744301E-001   7.42190313E-001   9.89799927E-001
   2.20000000E+002   9.91555454E-001   7.41853228E-001   9.90709441E-001
   2.25000000E+002   9.92276388E-001   7.41556940E-001   9.91517046E-001
   2.30000000E+002   9.92993573E-001   7.41295954E-001   9.92310501E-001
   2.35000000E+002   9.93608432E-001   7.41065577E-001   9.92992886E-001
   2.40000000E+002   9.94193980E-001   7.40861789E-001   9.93638203E-001
   2.45000000E+002   9.94731106E-001   7.40681146E-001   9.94228366E-001
