# ./jetvheto -in n3lo-fixed-order/H125-LHC13-R04-mb-0-mt-1725-xmur100-xmuf100-log.fxd -xQ 0.0625 -out benchmarks-n3lo-smallR/H125-LHC13-R04-mb-0-mt-1725-xmur100-xmuf100-xQ0625-NNLO+NNLLb.R0-1.5.res -scheme b -order 2 -ptmax 500.01 -small-r -fixed_order 2 -loop-mass t -R0 1.5
# process = H    
# collider = pp   
# rts =  13000.000
# M   =    125.000
# muR =    125.000
# muF =    125.000
# Q   =      7.812
# p   =      5.000
# include_c1_squared =   F
# loop_mass  = t   
# alphas(MZ) =    0.11800
# alphas(M) =    0.11264
# alphas(muR) =    0.11264
# Rjet =      0.400
# order = NNLL
# pdf name and set = PDF4LHC15_nnlo_mc.LHgrid,    0
# matching scheme = b
# total cross sections [nb] at LO, NLOdiff, NNLOdiff, N3LOdiff =     0.013801    0.017514    0.010146    0.003834
#----------------------------------------------------------------------
# the lines that follow give the jet-veto efficiencies as a function of pt
#         pt            matched eff      resummed eff     fixed-order eff
   2.00000000E+001   3.54595422E-001   2.85002328E-001   3.54033455E-001
   2.50000000E+001   4.61426382E-001   2.85519139E-001   4.61286580E-001
   3.00000000E+001   5.43504082E-001   2.85670483E-001   5.43462220E-001
   3.50000000E+001   6.08522848E-001   2.85725199E-001   6.08508831E-001
   4.00000000E+001   6.61208526E-001   2.85748159E-001   6.61203589E-001
   4.50000000E+001   7.04406155E-001   2.85758923E-001   7.04404447E-001
   5.00000000E+001   7.40495390E-001   2.85764419E-001   7.40494892E-001
   5.50000000E+001   7.70889775E-001   2.85767423E-001   7.70889733E-001
   6.00000000E+001   7.96874421E-001   2.85769159E-001   7.96874542E-001
   6.50000000E+001   8.19206619E-001   2.85770210E-001   8.19206785E-001
   7.00000000E+001   8.38409049E-001   2.85770871E-001   8.38409214E-001
   7.50000000E+001   8.55230144E-001   2.85771301E-001   8.55230292E-001
   8.00000000E+001   8.69962295E-001   2.85771589E-001   8.69962422E-001
   8.50000000E+001   8.82823549E-001   2.85771786E-001   8.82823656E-001
   9.00000000E+001   8.94209131E-001   2.85771925E-001   8.94209219E-001
   9.50000000E+001   9.04229928E-001   2.85772024E-001   9.04230001E-001
   1.00000000E+002   9.13167859E-001   2.85772097E-001   9.13167919E-001
   1.05000000E+002   9.21134501E-001   2.85772150E-001   9.21134551E-001
   1.10000000E+002   9.28171415E-001   2.85772191E-001   9.28171457E-001
   1.15000000E+002   9.34553602E-001   2.85772221E-001   9.34553636E-001
   1.20000000E+002   9.40244187E-001   2.85772245E-001   9.40244216E-001
   1.25000000E+002   9.45389445E-001   2.85772263E-001   9.45389469E-001
   1.30000000E+002   9.50042526E-001   2.85772278E-001   9.50042546E-001
   1.35000000E+002   9.54228403E-001   2.85772289E-001   9.54228420E-001
   1.40000000E+002   9.58013152E-001   2.85772298E-001   9.58013167E-001
   1.45000000E+002   9.61492607E-001   2.85772306E-001   9.61492620E-001
   1.50000000E+002   9.64595567E-001   2.85772312E-001   9.64595577E-001
   1.55000000E+002   9.67464924E-001   2.85772317E-001   9.67464933E-001
   1.60000000E+002   9.70084908E-001   2.85772321E-001   9.70084916E-001
   1.65000000E+002   9.72455640E-001   2.85772324E-001   9.72455647E-001
   1.70000000E+002   9.74634355E-001   2.85772327E-001   9.74634361E-001
   1.75000000E+002   9.76592339E-001   2.85772329E-001   9.76592344E-001
   1.80000000E+002   9.78408575E-001   2.85772331E-001   9.78408580E-001
   1.85000000E+002   9.80055852E-001   2.85772333E-001   9.80055856E-001
   1.90000000E+002   9.81581820E-001   2.85772334E-001   9.81581823E-001
   1.95000000E+002   9.82992801E-001   2.85772336E-001   9.82992805E-001
   2.00000000E+002   9.84270983E-001   2.85772337E-001   9.84270986E-001
   2.05000000E+002   9.85464624E-001   2.85772338E-001   9.85464627E-001
   2.10000000E+002   9.86543332E-001   2.85772338E-001   9.86543334E-001
   2.15000000E+002   9.87527398E-001   2.85772339E-001   9.87527400E-001
   2.20000000E+002   9.88450901E-001   2.85772340E-001   9.88450903E-001
   2.25000000E+002   9.89295607E-001   2.85772340E-001   9.89295609E-001
   2.30000000E+002   9.90077823E-001   2.85772341E-001   9.90077825E-001
   2.35000000E+002   9.90811650E-001   2.85772341E-001   9.90811652E-001
   2.40000000E+002   9.91469890E-001   2.85772341E-001   9.91469891E-001
   2.45000000E+002   9.92089218E-001   2.85772342E-001   9.92089219E-001
