# ./jetvheto -in n3lo-fixed-order/H125-LHC13-R04-mb-475-mt-1725-xmur050-xmuf100-log.fxd -xQ 0.25 -out benchmarks-n3lo-smallR/H125-LHC13-R04-mb-475-mt-1725-xmur050-xmuf100-xQ025-N3LO+NNLLa.R0-1.0.res -scheme a -order 2 -ptmax 500.01 -fixed_order 3 -small-r -loop-mass t+b -R0 1.0
# process = H    
# collider = pp   
# rts =  13000.000
# M   =    125.000
# muR =     62.500
# muF =    125.000
# Q   =     31.250
# p   =      5.000
# include_c1_squared =   F
# loop_mass  = t+b 
# alphas(MZ) =    0.11800
# alphas(M) =    0.11264
# alphas(muR) =    0.12516
# Rjet =      0.400
# order = NNLL
# pdf name and set = PDF4LHC15_nnlo_mc.LHgrid,    0
# matching scheme = a
# total cross sections [nb] at LO, NLOdiff, NNLOdiff, N3LOdiff =     0.015023    0.020252    0.008553    0.000949
#----------------------------------------------------------------------
# the lines that follow give the jet-veto efficiencies as a function of pt
#         pt            matched eff      resummed eff     fixed-order eff
   2.00000000E+001   4.35659558E-001   4.81229701E-001   4.34275701E-001
   2.50000000E+001   5.21589260E-001   5.46500820E-001   5.20687147E-001
   3.00000000E+001   5.97175913E-001   5.84899394E-001   5.97055125E-001
   3.50000000E+001   6.55695481E-001   6.05798336E-001   6.55665178E-001
   4.00000000E+001   7.03018395E-001   6.16777084E-001   7.03001592E-001
   4.50000000E+001   7.41422341E-001   6.22579384E-001   7.41403361E-001
   5.00000000E+001   7.74286964E-001   6.25740021E-001   7.74275319E-001
   5.50000000E+001   8.02594459E-001   6.27530841E-001   8.02589654E-001
   6.00000000E+001   8.26313139E-001   6.28587294E-001   8.26309804E-001
   6.50000000E+001   8.47913927E-001   6.29234565E-001   8.47913789E-001
   7.00000000E+001   8.65961616E-001   6.29644960E-001   8.65962067E-001
   7.50000000E+001   8.80509595E-001   6.29913243E-001   8.80509228E-001
   8.00000000E+001   8.93363906E-001   6.30093454E-001   8.93363259E-001
   8.50000000E+001   9.05180710E-001   6.30217466E-001   9.05180306E-001
   9.00000000E+001   9.15085035E-001   6.30304662E-001   9.15084552E-001
   9.50000000E+001   9.24341131E-001   6.30367166E-001   9.24340806E-001
   1.00000000E+002   9.31796568E-001   6.30412755E-001   9.31796185E-001
   1.05000000E+002   9.38534651E-001   6.30446530E-001   9.38534274E-001
   1.10000000E+002   9.44639924E-001   6.30471911E-001   9.44639596E-001
   1.15000000E+002   9.50097271E-001   6.30491233E-001   9.50096981E-001
   1.20000000E+002   9.54735355E-001   6.30506117E-001   9.54735085E-001
   1.25000000E+002   9.58690299E-001   6.30517708E-001   9.58690034E-001
   1.30000000E+002   9.62881866E-001   6.30526825E-001   9.62881653E-001
   1.35000000E+002   9.66508111E-001   6.30534062E-001   9.66507929E-001
   1.40000000E+002   9.69425370E-001   6.30539856E-001   9.69425203E-001
   1.45000000E+002   9.72288035E-001   6.30544532E-001   9.72287888E-001
   1.50000000E+002   9.74638509E-001   6.30548334E-001   9.74638375E-001
   1.55000000E+002   9.77408235E-001   6.30551447E-001   9.77408127E-001
   1.60000000E+002   9.78941551E-001   6.30554011E-001   9.78941444E-001
   1.65000000E+002   9.80820832E-001   6.30556137E-001   9.80820738E-001
   1.70000000E+002   9.82407824E-001   6.30557909E-001   9.82407738E-001
   1.75000000E+002   9.84035149E-001   6.30559395E-001   9.84035074E-001
   1.80000000E+002   9.85508815E-001   6.30560646E-001   9.85508749E-001
   1.85000000E+002   9.86833594E-001   6.30561705E-001   9.86833536E-001
   1.90000000E+002   9.87571301E-001   6.30562606E-001   9.87571245E-001
   1.95000000E+002   9.88798934E-001   6.30563375E-001   9.88798885E-001
   2.00000000E+002   9.89800714E-001   6.30564034E-001   9.89800670E-001
   2.05000000E+002   9.90611360E-001   6.30564601E-001   9.90611320E-001
   2.10000000E+002   9.91339071E-001   6.30565091E-001   9.91339035E-001
   2.15000000E+002   9.92243249E-001   6.30565516E-001   9.92243217E-001
   2.20000000E+002   9.92795385E-001   6.30565886E-001   9.92795355E-001
   2.25000000E+002   9.93441251E-001   6.30566208E-001   9.93441224E-001
   2.30000000E+002   9.94043588E-001   6.30566490E-001   9.94043564E-001
   2.35000000E+002   9.94593704E-001   6.30566738E-001   9.94593682E-001
   2.40000000E+002   9.94887787E-001   6.30566956E-001   9.94887766E-001
   2.45000000E+002   9.95416667E-001   6.30567148E-001   9.95416648E-001
