# ./jetvheto -in n3lo-fixed-order/H125-LHC13-R04-mb-0-mt-1725-xmur050-xmuf050-log.fxd -xQ 0.75 -out benchmarks-n3lo-smallR/H125-LHC13-R04-mb-0-mt-1725-xmur050-xmuf050-xQ075-NNLO+NNLLb.R0-0.5.res -scheme b -order 2 -ptmax 500.01 -small-r -fixed_order 2 -loop-mass t -R0 0.5
# process = H    
# collider = pp   
# rts =  13000.000
# M   =    125.000
# muR =     62.500
# muF =     62.500
# Q   =     93.750
# p   =      5.000
# include_c1_squared =   F
# loop_mass  = t   
# alphas(MZ) =    0.11800
# alphas(M) =    0.11264
# alphas(muR) =    0.12516
# Rjet =      0.400
# order = NNLL
# pdf name and set = PDF4LHC15_nnlo_mc.LHgrid,    0
# matching scheme = b
# total cross sections [nb] at LO, NLOdiff, NNLOdiff, N3LOdiff =     0.015885    0.020561    0.008998    0.001413
#----------------------------------------------------------------------
# the lines that follow give the jet-veto efficiencies as a function of pt
#         pt            matched eff      resummed eff     fixed-order eff
   2.00000000E+001   4.53060888E-001   5.40096405E-001   3.37968833E-001
   2.50000000E+001   5.37405324E-001   6.22109919E-001   4.45490403E-001
   3.00000000E+001   6.04632601E-001   6.79633980E-001   5.29094091E-001
   3.50000000E+001   6.59135916E-001   7.19667442E-001   5.95850260E-001
   4.00000000E+001   7.03733535E-001   7.47078590E-001   6.50115846E-001
   4.50000000E+001   7.40641242E-001   7.65296764E-001   6.94939270E-001
   5.00000000E+001   7.71844380E-001   7.76779321E-001   7.32769177E-001
   5.50000000E+001   7.97746902E-001   7.83338293E-001   7.64361916E-001
   6.00000000E+001   8.19950545E-001   7.86330041E-001   7.91465371E-001
   6.50000000E+001   8.39071447E-001   7.86801680E-001   8.14838120E-001
   7.00000000E+001   8.55615741E-001   7.85573140E-001   8.35078651E-001
   7.50000000E+001   8.69899448E-001   7.83284755E-001   8.52570605E-001
   8.00000000E+001   8.82503834E-001   7.80427879E-001   8.67937405E-001
   8.50000000E+001   8.93682241E-001   7.77363720E-001   8.81478135E-001
   9.00000000E+001   9.03610519E-001   7.74341617E-001   8.93411828E-001
   9.50000000E+001   9.12374311E-001   7.71517140E-001   9.03868009E-001
   1.00000000E+002   9.20357789E-001   7.68974664E-001   9.13265993E-001
   1.05000000E+002   9.27401344E-001   7.66746727E-001   9.21489390E-001
   1.10000000E+002   9.33782175E-001   7.64831693E-001   9.28847842E-001
   1.15000000E+002   9.39577531E-001   7.63207845E-001   9.35451292E-001
   1.20000000E+002   9.44852669E-001   7.61843583E-001   9.41393487E-001
   1.25000000E+002   9.49699201E-001   7.60704094E-001   9.46790455E-001
   1.30000000E+002   9.54009598E-001   7.59755552E-001   9.51556334E-001
   1.35000000E+002   9.57938475E-001   7.58967095E-001   9.55862035E-001
   1.40000000E+002   9.61552714E-001   7.58311665E-001   9.59788706E-001
   1.45000000E+002   9.64861112E-001   7.57766195E-001   9.63356960E-001
   1.50000000E+002   9.67911193E-001   7.57311355E-001   9.66623739E-001
   1.55000000E+002   9.70665442E-001   7.56931135E-001   9.69559478E-001
   1.60000000E+002   9.73181670E-001   7.56612368E-001   9.72228153E-001
   1.65000000E+002   9.75464185E-001   7.56344274E-001   9.74639208E-001
   1.70000000E+002   9.77573367E-001   7.56118043E-001   9.76857081E-001
   1.75000000E+002   9.79493665E-001   7.55926483E-001   9.78869658E-001
   1.80000000E+002   9.81227816E-001   7.55763719E-001   9.80682463E-001
   1.85000000E+002   9.82839872E-001   7.55624941E-001   9.82361728E-001
   1.90000000E+002   9.84317328E-001   7.55506210E-001   9.83896830E-001
   1.95000000E+002   9.85667852E-001   7.55404287E-001   9.85296972E-001
   2.00000000E+002   9.86906400E-001   7.55316503E-001   9.86578358E-001
   2.05000000E+002   9.88043615E-001   7.55240654E-001   9.87752669E-001
   2.10000000E+002   9.89063154E-001   7.55174911E-001   9.88804449E-001
   2.15000000E+002   9.90030563E-001   7.55117756E-001   9.89799927E-001
   2.20000000E+002   9.90915551E-001   7.55067918E-001   9.90709441E-001
   2.25000000E+002   9.91701656E-001   7.55024339E-001   9.91517046E-001
   2.30000000E+002   9.92476249E-001   7.54986126E-001   9.92310501E-001
   2.35000000E+002   9.93142004E-001   7.54952531E-001   9.92992886E-001
   2.40000000E+002   9.93772646E-001   7.54922918E-001   9.93638203E-001
   2.45000000E+002   9.94349824E-001   7.54896750E-001   9.94228366E-001
