# ./jetvheto -in n3lo-fixed-order/H125-LHC13-R04-mb-0-mt-1725-xmur100-xmuf100-log.fxd -xQ 0.125 -out benchmarks-n3lo-smallR/H125-LHC13-R04-mb-0-mt-1725-xmur100-xmuf100-xQ125-N3LO+NNLLa.R0-0.5.res -scheme a -order 2 -ptmax 500.01 -small-r -fixed_order 3 -loop-mass t -R0 0.5
# process = H    
# collider = pp   
# rts =  13000.000
# M   =    125.000
# muR =    125.000
# muF =    125.000
# Q   =     15.625
# p   =      5.000
# include_c1_squared =   F
# loop_mass  = t   
# alphas(MZ) =    0.11800
# alphas(M) =    0.11264
# alphas(muR) =    0.11264
# Rjet =      0.400
# order = NNLL
# pdf name and set = PDF4LHC15_nnlo_mc.LHgrid,    0
# matching scheme = a
# total cross sections [nb] at LO, NLOdiff, NNLOdiff, N3LOdiff =     0.013801    0.017514    0.010146    0.003834
#----------------------------------------------------------------------
# the lines that follow give the jet-veto efficiencies as a function of pt
#         pt            matched eff      resummed eff     fixed-order eff
   2.00000000E+001   4.70174771E-001   5.18898285E-001   4.70549319E-001
   2.50000000E+001   5.54762832E-001   5.34719159E-001   5.55098689E-001
   3.00000000E+001   6.25391754E-001   5.39865228E-001   6.25631507E-001
   3.50000000E+001   6.80068258E-001   5.41792368E-001   6.80214785E-001
   4.00000000E+001   7.24237139E-001   5.42612144E-001   7.24327023E-001
   4.50000000E+001   7.60053196E-001   5.42998736E-001   7.60109480E-001
   5.00000000E+001   7.90373562E-001   5.43196721E-001   7.90410150E-001
   5.50000000E+001   8.16240112E-001   5.43305113E-001   8.16264683E-001
   6.00000000E+001   8.38018811E-001   5.43367800E-001   8.38035676E-001
   6.50000000E+001   8.57414817E-001   5.43405753E-001   8.57426760E-001
   7.00000000E+001   8.73736369E-001   5.43429640E-001   8.73744963E-001
   7.50000000E+001   8.87336071E-001   5.43445181E-001   8.87342330E-001
   8.00000000E+001   8.99275540E-001   5.43455587E-001   8.99280183E-001
   8.50000000E+001   9.10042547E-001   5.43462733E-001   9.10046058E-001
   9.00000000E+001   9.19214628E-001   5.43467750E-001   9.19217312E-001
   9.50000000E+001   9.27601634E-001   5.43471343E-001   9.27603719E-001
   1.00000000E+002   9.34622839E-001   5.43473961E-001   9.34624471E-001
   1.05000000E+002   9.40916369E-001   5.43475900E-001   9.40917661E-001
   1.10000000E+002   9.46568107E-001   5.43477356E-001   9.46569141E-001
   1.15000000E+002   9.51647156E-001   5.43478464E-001   9.51647991E-001
   1.20000000E+002   9.56059127E-001   5.43479318E-001   9.56059806E-001
   1.25000000E+002   9.59882758E-001   5.43479982E-001   9.59883314E-001
   1.30000000E+002   9.63711234E-001   5.43480505E-001   9.63711695E-001
   1.35000000E+002   9.67054335E-001   5.43480920E-001   9.67054718E-001
   1.40000000E+002   9.69876965E-001   5.43481252E-001   9.69877285E-001
   1.45000000E+002   9.72570836E-001   5.43481520E-001   9.72571106E-001
   1.50000000E+002   9.74852505E-001   5.43481738E-001   9.74852733E-001
   1.55000000E+002   9.77310246E-001   5.43481916E-001   9.77310440E-001
   1.60000000E+002   9.78984151E-001   5.43482063E-001   9.78984317E-001
   1.65000000E+002   9.80775485E-001   5.43482185E-001   9.80775628E-001
   1.70000000E+002   9.82342188E-001   5.43482287E-001   9.82342311E-001
   1.75000000E+002   9.83862644E-001   5.43482372E-001   9.83862750E-001
   1.80000000E+002   9.85258194E-001   5.43482443E-001   9.85258287E-001
   1.85000000E+002   9.86511633E-001   5.43482504E-001   9.86511714E-001
   1.90000000E+002   9.87391254E-001   5.43482556E-001   9.87391325E-001
   1.95000000E+002   9.88518099E-001   5.43482600E-001   9.88518162E-001
   2.00000000E+002   9.89474302E-001   5.43482637E-001   9.89474357E-001
   2.05000000E+002   9.90297090E-001   5.43482670E-001   9.90297139E-001
   2.10000000E+002   9.91033183E-001   5.43482698E-001   9.91033226E-001
   2.15000000E+002   9.91849327E-001   5.43482722E-001   9.91849366E-001
   2.20000000E+002   9.92440734E-001   5.43482744E-001   9.92440768E-001
   2.25000000E+002   9.93063645E-001   5.43482762E-001   9.93063675E-001
   2.30000000E+002   9.93644254E-001   5.43482778E-001   9.93644282E-001
   2.35000000E+002   9.94181483E-001   5.43482792E-001   9.94181508E-001
   2.40000000E+002   9.94546040E-001   5.43482805E-001   9.94546063E-001
   2.45000000E+002   9.95034505E-001   5.43482816E-001   9.95034525E-001
