# ./jetvheto -in n3lo-fixed-order/H125-LHC13-R04-mb-0-mt-1725-xmur050-xmuf050-log.fxd -xQ 0.25 -out benchmarks-n3lo-smallR/H125-LHC13-R04-mb-0-mt-1725-xmur050-xmuf050-xQ025-N3LO+NNLLb.R0-1.0.res -scheme b -order 2 -ptmax 500.01 -small-r -fixed_order 3 -loop-mass t -R0 1.0
# process = H    
# collider = pp   
# rts =  13000.000
# M   =    125.000
# muR =     62.500
# muF =     62.500
# Q   =     31.250
# p   =      5.000
# include_c1_squared =   F
# loop_mass  = t   
# alphas(MZ) =    0.11800
# alphas(M) =    0.11264
# alphas(muR) =    0.12516
# Rjet =      0.400
# order = NNLL
# pdf name and set = PDF4LHC15_nnlo_mc.LHgrid,    0
# matching scheme = b
# total cross sections [nb] at LO, NLOdiff, NNLOdiff, N3LOdiff =     0.015885    0.020561    0.008998    0.001413
#----------------------------------------------------------------------
# the lines that follow give the jet-veto efficiencies as a function of pt
#         pt            matched eff      resummed eff     fixed-order eff
   2.00000000E+001   4.47909705E-001   4.95556848E-001   4.41643521E-001
   2.50000000E+001   5.33263360E-001   5.65203003E-001   5.29528045E-001
   3.00000000E+001   6.05943638E-001   6.06442122E-001   6.04131024E-001
   3.50000000E+001   6.64269419E-001   6.28993260E-001   6.63337130E-001
   4.00000000E+001   7.09848446E-001   6.40874843E-001   7.09302441E-001
   4.50000000E+001   7.49675288E-001   6.47164810E-001   7.49371437E-001
   5.00000000E+001   7.81890165E-001   6.50594386E-001   7.81702411E-001
   5.50000000E+001   8.09582445E-001   6.52538663E-001   8.09465789E-001
   6.00000000E+001   8.32457243E-001   6.53686016E-001   8.32379427E-001
   6.50000000E+001   8.53555060E-001   6.54389120E-001   8.53504482E-001
   7.00000000E+001   8.69891473E-001   6.54834970E-001   8.69854849E-001
   7.50000000E+001   8.84467073E-001   6.55126453E-001   8.84440584E-001
   8.00000000E+001   8.97602315E-001   6.55322259E-001   8.97583035E-001
   8.50000000E+001   9.09247577E-001   6.55457007E-001   9.09233323E-001
   9.00000000E+001   9.19513377E-001   6.55551754E-001   9.19502663E-001
   9.50000000E+001   9.27736687E-001   6.55619673E-001   9.27728280E-001
   1.00000000E+002   9.35569784E-001   6.55669211E-001   9.35563225E-001
   1.05000000E+002   9.41793657E-001   6.55705912E-001   9.41788367E-001
   1.10000000E+002   9.47507346E-001   6.55733493E-001   9.47503067E-001
   1.15000000E+002   9.52906455E-001   6.55754490E-001   9.52903001E-001
   1.20000000E+002   9.57769208E-001   6.55770664E-001   9.57766396E-001
   1.25000000E+002   9.61824115E-001   6.55783259E-001   9.61821780E-001
   1.30000000E+002   9.65322825E-001   6.55793165E-001   9.65320871E-001
   1.35000000E+002   9.68791547E-001   6.55801030E-001   9.68789919E-001
   1.40000000E+002   9.71952717E-001   6.55807326E-001   9.71951352E-001
   1.45000000E+002   9.74704039E-001   6.55812408E-001   9.74702884E-001
   1.50000000E+002   9.76855441E-001   6.55816539E-001   9.76854447E-001
   1.55000000E+002   9.79290446E-001   6.55819921E-001   9.79289601E-001
   1.60000000E+002   9.81471402E-001   6.55822708E-001   9.81470679E-001
   1.65000000E+002   9.82817552E-001   6.55825018E-001   9.82816919E-001
   1.70000000E+002   9.84547994E-001   6.55826944E-001   9.84547446E-001
   1.75000000E+002   9.86143001E-001   6.55828558E-001   9.86142527E-001
   1.80000000E+002   9.87366043E-001   6.55829918E-001   9.87365627E-001
   1.85000000E+002   9.88489935E-001   6.55831069E-001   9.88489569E-001
   1.90000000E+002   9.89640123E-001   6.55832048E-001   9.89639801E-001
   1.95000000E+002   9.90702005E-001   6.55832883E-001   9.90701722E-001
   2.00000000E+002   9.91640782E-001   6.55833600E-001   9.91640532E-001
   2.05000000E+002   9.92381494E-001   6.55834216E-001   9.92381271E-001
   2.10000000E+002   9.93124554E-001   6.55834749E-001   9.93124356E-001
   2.15000000E+002   9.93702344E-001   6.55835211E-001   9.93702166E-001
   2.20000000E+002   9.94524128E-001   6.55835612E-001   9.94523970E-001
   2.25000000E+002   9.94951357E-001   6.55835963E-001   9.94951215E-001
   2.30000000E+002   9.95476851E-001   6.55836269E-001   9.95476723E-001
   2.35000000E+002   9.95859634E-001   6.55836538E-001   9.95859519E-001
   2.40000000E+002   9.96276859E-001   6.55836775E-001   9.96276754E-001
   2.45000000E+002   9.96764574E-001   6.55836984E-001   9.96764480E-001
