# ./jetvheto -in n3lo-fixed-order/H125-LHC13-R04-mb-475-mt-1725-xmur050-xmuf025-log.fxd -xQ 0.25 -out benchmarks-n3lo-smallR/H125-LHC13-R04-mb-475-mt-1725-xmur050-xmuf025-xQ025-N3LO+NNLLb.res -scheme b -order 2 -ptmax 500.01 -fixed_order 3 -loop-mass t+b
# process = H    
# collider = pp   
# rts =  13000.000
# M   =    125.000
# muR =     62.500
# muF =     31.250
# Q   =     31.250
# p   =      5.000
# include_c1_squared =   F
# loop_mass  = t+b 
# alphas(MZ) =    0.11800
# alphas(M) =    0.11264
# alphas(muR) =    0.12516
# Rjet =      0.400
# order = NNLL
# pdf name and set = PDF4LHC15_nnlo_mc.LHgrid,    0
# matching scheme = b
# total cross sections [nb] at LO, NLOdiff, NNLOdiff, N3LOdiff =     0.012926    0.020318    0.009723    0.001827
#----------------------------------------------------------------------
# the lines that follow give the jet-veto efficiencies as a function of pt
#         pt            matched eff      resummed eff     fixed-order eff
   2.00000000E+001   4.20907036E-001   4.61507387E-001   4.15980545E-001
   2.50000000E+001   5.10209991E-001   5.30003528E-001   5.07800100E-001
   3.00000000E+001   5.81880903E-001   5.70867920E-001   5.80656478E-001
   3.50000000E+001   6.40396373E-001   5.93324378E-001   6.39756651E-001
   4.00000000E+001   6.89300413E-001   6.05191897E-001   6.88975344E-001
   4.50000000E+001   7.30769307E-001   6.11485872E-001   7.30606525E-001
   5.00000000E+001   7.65490032E-001   6.14921180E-001   7.65403404E-001
   5.50000000E+001   7.95813188E-001   6.16869859E-001   7.95769940E-001
   6.00000000E+001   8.20976952E-001   6.18020210E-001   8.20952172E-001
   6.50000000E+001   8.41300526E-001   6.18725299E-001   8.41282612E-001
   7.00000000E+001   8.60367677E-001   6.19172467E-001   8.60356605E-001
   7.50000000E+001   8.76591474E-001   6.19464837E-001   8.76584241E-001
   8.00000000E+001   8.90181226E-001   6.19661250E-001   8.90175714E-001
   8.50000000E+001   9.02719550E-001   6.19796420E-001   9.02715631E-001
   9.00000000E+001   9.13666269E-001   6.19891467E-001   9.13663383E-001
   9.50000000E+001   9.21897218E-001   6.19959602E-001   9.21894582E-001
   1.00000000E+002   9.30779784E-001   6.20009298E-001   9.30777862E-001
   1.05000000E+002   9.37706163E-001   6.20046118E-001   9.37704516E-001
   1.10000000E+002   9.44695855E-001   6.20073787E-001   9.44694592E-001
   1.15000000E+002   9.50721367E-001   6.20094851E-001   9.50720349E-001
   1.20000000E+002   9.55559125E-001   6.20111077E-001   9.55558232E-001
   1.25000000E+002   9.59756257E-001   6.20123713E-001   9.59755469E-001
   1.30000000E+002   9.64021005E-001   6.20133652E-001   9.64020346E-001
   1.35000000E+002   9.67558391E-001   6.20141542E-001   9.67557819E-001
   1.40000000E+002   9.70866249E-001   6.20147859E-001   9.70865759E-001
   1.45000000E+002   9.73929464E-001   6.20152957E-001   9.73929043E-001
   1.50000000E+002   9.76552250E-001   6.20157101E-001   9.76551883E-001
   1.55000000E+002   9.78957196E-001   6.20160494E-001   9.78956876E-001
   1.60000000E+002   9.81460071E-001   6.20163290E-001   9.81459799E-001
   1.65000000E+002   9.83315969E-001   6.20165608E-001   9.83315727E-001
   1.70000000E+002   9.84871656E-001   6.20167540E-001   9.84871440E-001
   1.75000000E+002   9.86707009E-001   6.20169159E-001   9.86706822E-001
   1.80000000E+002   9.87960842E-001   6.20170524E-001   9.87960674E-001
   1.85000000E+002   9.89386544E-001   6.20171678E-001   9.89386397E-001
   1.90000000E+002   9.90522309E-001   6.20172660E-001   9.90522177E-001
   1.95000000E+002   9.91725325E-001   6.20173498E-001   9.91725209E-001
   2.00000000E+002   9.92593417E-001   6.20174217E-001   9.92593312E-001
   2.05000000E+002   9.93441357E-001   6.20174836E-001   9.93441263E-001
   2.10000000E+002   9.94207167E-001   6.20175370E-001   9.94207082E-001
   2.15000000E+002   9.95058461E-001   6.20175833E-001   9.95058385E-001
   2.20000000E+002   9.95659238E-001   6.20176236E-001   9.95659169E-001
   2.25000000E+002   9.96348678E-001   6.20176588E-001   9.96348616E-001
   2.30000000E+002   9.96847376E-001   6.20176895E-001   9.96847320E-001
   2.35000000E+002   9.97218803E-001   6.20177165E-001   9.97218752E-001
   2.40000000E+002   9.97738117E-001   6.20177403E-001   9.97738071E-001
   2.45000000E+002   9.98160758E-001   6.20177613E-001   9.98160716E-001
