# ./jetvheto -in n3lo-fixed-order/H125-LHC13-R04-mb-0-mt-1725-xmur100-xmuf100-log.fxd -xQ 0.75 -out benchmarks-n3lo-smallR/H125-LHC13-R04-mb-0-mt-1725-xmur100-xmuf100-xQ075-NNLO+NNLLa.R0-1.0.res -scheme a -order 2 -ptmax 500.01 -small-r -fixed_order 2 -loop-mass t -R0 1.0
# process = H    
# collider = pp   
# rts =  13000.000
# M   =    125.000
# muR =    125.000
# muF =    125.000
# Q   =     93.750
# p   =      5.000
# include_c1_squared =   F
# loop_mass  = t   
# alphas(MZ) =    0.11800
# alphas(M) =    0.11264
# alphas(muR) =    0.11264
# Rjet =      0.400
# order = NNLL
# pdf name and set = PDF4LHC15_nnlo_mc.LHgrid,    0
# matching scheme = a
# total cross sections [nb] at LO, NLOdiff, NNLOdiff, N3LOdiff =     0.013801    0.017514    0.010146    0.003834
#----------------------------------------------------------------------
# the lines that follow give the jet-veto efficiencies as a function of pt
#         pt            matched eff      resummed eff     fixed-order eff
   2.00000000E+001   5.14655562E-001   5.52866183E-001   5.12111256E-001
   2.50000000E+001   6.05170151E-001   6.38654066E-001   5.93117916E-001
   3.00000000E+001   6.75072659E-001   6.99454453E-001   6.55183932E-001
   3.50000000E+001   7.29759744E-001   7.42216089E-001   7.04312652E-001
   4.00000000E+001   7.72959852E-001   7.71866384E-001   7.44112204E-001
   4.50000000E+001   8.07185499E-001   7.91908272E-001   7.76741158E-001
   5.00000000E+001   8.34610571E-001   8.04854845E-001   8.03999724E-001
   5.50000000E+001   8.56643012E-001   8.12567727E-001   8.26956486E-001
   6.00000000E+001   8.74562643E-001   8.16459384E-001   8.46582419E-001
   6.50000000E+001   8.89205592E-001   8.17626900E-001   8.63449624E-001
   7.00000000E+001   9.01187044E-001   8.16931357E-001   8.77952928E-001
   7.50000000E+001   9.11262515E-001   8.15045781E-001   8.90657633E-001
   8.00000000E+001   9.19792677E-001   8.12488446E-001   9.01784587E-001
   8.50000000E+001   9.27044634E-001   8.09643331E-001   9.11498483E-001
   9.00000000E+001   9.33389985E-001   8.06779338E-001   9.20097826E-001
   9.50000000E+001   9.38946865E-001   8.04068633E-001   9.27666371E-001
   1.00000000E+002   9.43941145E-001   8.01607846E-001   9.34417045E-001
   1.05000000E+002   9.48449294E-001   7.99438655E-001   9.40434122E-001
   1.10000000E+002   9.52482997E-001   7.97566077E-001   9.45748990E-001
   1.15000000E+002   9.56226633E-001   7.95973200E-001   9.50569353E-001
   1.20000000E+002   9.59624189E-001   7.94631727E-001   9.54867362E-001
   1.25000000E+002   9.62760501E-001   7.93509255E-001   9.58753493E-001
   1.30000000E+002   9.65651476E-001   7.92573556E-001   9.62267892E-001
   1.35000000E+002   9.68294796E-001   7.91794885E-001   9.65429419E-001
   1.40000000E+002   9.70722188E-001   7.91147003E-001   9.68287981E-001
   1.45000000E+002   9.72991096E-001   7.90607420E-001   9.70915959E-001
   1.50000000E+002   9.75034645E-001   7.90157224E-001   9.73259576E-001
   1.55000000E+002   9.76950648E-001   7.89780703E-001   9.75426757E-001
   1.60000000E+002   9.78718520E-001   7.89464913E-001   9.77405590E-001
   1.65000000E+002   9.80331285E-001   7.89199235E-001   9.79196168E-001
   1.70000000E+002   9.81826520E-001   7.88974983E-001   9.80841717E-001
   1.75000000E+002   9.83177788E-001   7.88785055E-001   9.82320552E-001
   1.80000000E+002   9.84440995E-001   7.88623646E-001   9.83692327E-001
   1.85000000E+002   9.85592405E-001   7.88486003E-001   9.84936490E-001
   1.90000000E+002   9.86665465E-001   7.88368225E-001   9.86089030E-001
   1.95000000E+002   9.87662824E-001   7.88267109E-001   9.87154723E-001
   2.00000000E+002   9.88569253E-001   7.88180012E-001   9.88120114E-001
   2.05000000E+002   9.89419779E-001   7.88104749E-001   9.89021653E-001
   2.10000000E+002   9.90190222E-001   7.88039510E-001   9.89836384E-001
   2.15000000E+002   9.90894911E-001   7.87982788E-001   9.90579634E-001
   2.20000000E+002   9.91558762E-001   7.87933327E-001   9.91277142E-001
   2.25000000E+002   9.92167286E-001   7.87890074E-001   9.91915136E-001
   2.30000000E+002   9.92732213E-001   7.87852147E-001   9.92505931E-001
   2.35000000E+002   9.93263698E-001   7.87818800E-001   9.93060180E-001
   2.40000000E+002   9.93740767E-001   7.87789406E-001   9.93557338E-001
   2.45000000E+002   9.94190769E-001   7.87763431E-001   9.94025107E-001
