# ./jetvheto -in n3lo-fixed-order/H125-LHC13-R04-mb-475-mt-1725-xmur025-xmuf050-log.fxd -xQ 0.25 -out benchmarks-n3lo-smallR/H125-LHC13-R04-mb-475-mt-1725-xmur025-xmuf050-xQ025-NNLO+NNLLb.R0-1.5.res -scheme b -order 2 -ptmax 500.01 -fixed_order 2 -small-r -loop-mass t+b -R0 1.5
# process = H    
# collider = pp   
# rts =  13000.000
# M   =    125.000
# muR =     31.250
# muF =     62.500
# Q   =     31.250
# p   =      5.000
# include_c1_squared =   F
# loop_mass  = t+b 
# alphas(MZ) =    0.11800
# alphas(M) =    0.11264
# alphas(muR) =    0.14091
# Rjet =      0.400
# order = NNLL
# pdf name and set = PDF4LHC15_nnlo_mc.LHgrid,    0
# matching scheme = b
# total cross sections [nb] at LO, NLOdiff, NNLOdiff, N3LOdiff =     0.017683    0.024805    0.005009   -0.002663
#----------------------------------------------------------------------
# the lines that follow give the jet-veto efficiencies as a function of pt
#         pt            matched eff      resummed eff     fixed-order eff
   2.00000000E+001   3.86019192E-001   4.26905630E-001   3.45013482E-001
   2.50000000E+001   4.69961400E-001   4.84684358E-001   4.46678028E-001
   3.00000000E+001   5.40988289E-001   5.18832701E-001   5.28145480E-001
   3.50000000E+001   6.01306180E-001   5.37487091E-001   5.94218939E-001
   4.00000000E+001   6.52500714E-001   5.47309895E-001   6.48501749E-001
   4.50000000E+001   6.96259063E-001   5.52508295E-001   6.93918270E-001
   5.00000000E+001   7.33642045E-001   5.55342193E-001   7.32217372E-001
   5.50000000E+001   7.65552241E-001   5.56948609E-001   7.64650938E-001
   6.00000000E+001   7.92978028E-001   5.57896530E-001   7.92387018E-001
   6.50000000E+001   8.16662967E-001   5.58477399E-001   8.16263144E-001
   7.00000000E+001   8.37347935E-001   5.58845729E-001   8.37069884E-001
   7.50000000E+001   8.55180652E-001   5.59086530E-001   8.54982301E-001
   8.00000000E+001   8.70874068E-001   5.59248287E-001   8.70729506E-001
   8.50000000E+001   8.84703618E-001   5.59359603E-001   8.84596193E-001
   9.00000000E+001   8.96830213E-001   5.59437875E-001   8.96749054E-001
   9.50000000E+001   9.07436864E-001   5.59493982E-001   9.07374553E-001
   1.00000000E+002   9.16914359E-001   5.59534905E-001   9.16865875E-001
   1.05000000E+002   9.25264368E-001   5.59565225E-001   9.25226146E-001
   1.10000000E+002   9.32690798E-001   5.59588009E-001   9.32660346E-001
   1.15000000E+002   9.39337070E-001   5.59605354E-001   9.39312551E-001
   1.20000000E+002   9.45267782E-001   5.59618715E-001   9.45247859E-001
   1.25000000E+002   9.50635712E-001   5.59629120E-001   9.50619386E-001
   1.30000000E+002   9.55367732E-001   5.59637304E-001   9.55354243E-001
   1.35000000E+002   9.59653365E-001   5.59643801E-001   9.59642145E-001
   1.40000000E+002   9.63530071E-001   5.59649002E-001   9.63520673E-001
   1.45000000E+002   9.66995764E-001   5.59653200E-001   9.66987843E-001
   1.50000000E+002   9.70168557E-001   5.59656613E-001   9.70161843E-001
   1.55000000E+002   9.73020444E-001   5.59659407E-001   9.73014721E-001
   1.60000000E+002   9.75596697E-001   5.59661709E-001   9.75591796E-001
   1.65000000E+002   9.77906800E-001   5.59663617E-001   9.77902582E-001
   1.70000000E+002   9.80015256E-001   5.59665208E-001   9.80011610E-001
   1.75000000E+002   9.81963428E-001   5.59666542E-001   9.81960264E-001
   1.80000000E+002   9.83682048E-001   5.59667665E-001   9.83679291E-001
   1.85000000E+002   9.85274772E-001   5.59668616E-001   9.85272360E-001
   1.90000000E+002   9.86725198E-001   5.59669424E-001   9.86723082E-001
   1.95000000E+002   9.88031549E-001   5.59670115E-001   9.88029685E-001
   2.00000000E+002   9.89216960E-001   5.59670707E-001   9.89215313E-001
   2.05000000E+002   9.90311657E-001   5.59671216E-001   9.90310198E-001
   2.10000000E+002   9.91273924E-001   5.59671656E-001   9.91272628E-001
   2.15000000E+002   9.92193315E-001   5.59672037E-001   9.92192159E-001
   2.20000000E+002   9.93032875E-001   5.59672369E-001   9.93031843E-001
   2.25000000E+002   9.93751593E-001   5.59672658E-001   9.93750669E-001
   2.30000000E+002   9.94477839E-001   5.59672912E-001   9.94477010E-001
   2.35000000E+002   9.95090963E-001   5.59673134E-001   9.95090217E-001
   2.40000000E+002   9.95665279E-001   5.59673330E-001   9.95664606E-001
   2.45000000E+002   9.96182968E-001   5.59673502E-001   9.96182360E-001
