# ./jetvheto -in n3lo-fixed-order/H125-LHC13-R04-mb-0-mt-1725-xmur050-xmuf050-log.fxd -xQ 0.125 -out benchmarks-n3lo-smallR/H125-LHC13-R04-mb-0-mt-1725-xmur050-xmuf050-xQ0125-NNLO+NNLLb.R0-1.0.res -scheme b -order 2 -ptmax 500.01 -small-r -fixed_order 2 -loop-mass t -R0 1.0
# process = H    
# collider = pp   
# rts =  13000.000
# M   =    125.000
# muR =     62.500
# muF =     62.500
# Q   =     15.625
# p   =      5.000
# include_c1_squared =   F
# loop_mass  = t   
# alphas(MZ) =    0.11800
# alphas(M) =    0.11264
# alphas(muR) =    0.12516
# Rjet =      0.400
# order = NNLL
# pdf name and set = PDF4LHC15_nnlo_mc.LHgrid,    0
# matching scheme = b
# total cross sections [nb] at LO, NLOdiff, NNLOdiff, N3LOdiff =     0.015885    0.020561    0.008998    0.001413
#----------------------------------------------------------------------
# the lines that follow give the jet-veto efficiencies as a function of pt
#         pt            matched eff      resummed eff     fixed-order eff
   2.00000000E+001   3.47797788E-001   4.41512778E-001   3.37968833E-001
   2.50000000E+001   4.48421141E-001   4.56040136E-001   4.45490403E-001
   3.00000000E+001   5.30094243E-001   4.60774215E-001   5.29094091E-001
   3.50000000E+001   5.96234532E-001   4.62548176E-001   5.95850260E-001
   4.00000000E+001   6.50277745E-001   4.63302976E-001   6.50115846E-001
   4.50000000E+001   6.95012412E-001   4.63658964E-001   6.94939270E-001
   5.00000000E+001   7.32803934E-001   4.63841286E-001   7.32769177E-001
   5.50000000E+001   7.64379060E-001   4.63941105E-001   7.64361916E-001
   6.00000000E+001   7.91474018E-001   4.63998835E-001   7.91465371E-001
   6.50000000E+001   8.14842504E-001   4.64033787E-001   8.14838120E-001
   7.00000000E+001   8.35080833E-001   4.64055785E-001   8.35078651E-001
   7.50000000E+001   8.52571642E-001   4.64070097E-001   8.52570605E-001
   8.00000000E+001   8.67937833E-001   4.64079681E-001   8.67937405E-001
   8.50000000E+001   8.81478244E-001   4.64086262E-001   8.81478135E-001
   9.00000000E+001   8.93411774E-001   4.64090882E-001   8.93411828E-001
   9.50000000E+001   9.03867879E-001   4.64094191E-001   9.03868009E-001
   1.00000000E+002   9.13265831E-001   4.64096602E-001   9.13265993E-001
   1.05000000E+002   9.21489222E-001   4.64098388E-001   9.21489390E-001
   1.10000000E+002   9.28847680E-001   4.64099729E-001   9.28847842E-001
   1.15000000E+002   9.35451142E-001   4.64100750E-001   9.35451292E-001
   1.20000000E+002   9.41393351E-001   4.64101536E-001   9.41393487E-001
   1.25000000E+002   9.46790334E-001   4.64102148E-001   9.46790455E-001
   1.30000000E+002   9.51556227E-001   4.64102629E-001   9.51556334E-001
   1.35000000E+002   9.55861941E-001   4.64103011E-001   9.55862035E-001
   1.40000000E+002   9.59788624E-001   4.64103317E-001   9.59788706E-001
   1.45000000E+002   9.63356887E-001   4.64103564E-001   9.63356960E-001
   1.50000000E+002   9.66623676E-001   4.64103764E-001   9.66623739E-001
   1.55000000E+002   9.69559422E-001   4.64103929E-001   9.69559478E-001
   1.60000000E+002   9.72228104E-001   4.64104064E-001   9.72228153E-001
   1.65000000E+002   9.74639165E-001   4.64104176E-001   9.74639208E-001
   1.70000000E+002   9.76857043E-001   4.64104270E-001   9.76857081E-001
   1.75000000E+002   9.78869625E-001   4.64104348E-001   9.78869658E-001
   1.80000000E+002   9.80682433E-001   4.64104414E-001   9.80682463E-001
   1.85000000E+002   9.82361702E-001   4.64104470E-001   9.82361728E-001
   1.90000000E+002   9.83896807E-001   4.64104517E-001   9.83896830E-001
   1.95000000E+002   9.85296952E-001   4.64104558E-001   9.85296972E-001
   2.00000000E+002   9.86578340E-001   4.64104593E-001   9.86578358E-001
   2.05000000E+002   9.87752653E-001   4.64104623E-001   9.87752669E-001
   2.10000000E+002   9.88804434E-001   4.64104649E-001   9.88804449E-001
   2.15000000E+002   9.89799915E-001   4.64104671E-001   9.89799927E-001
   2.20000000E+002   9.90709430E-001   4.64104691E-001   9.90709441E-001
   2.25000000E+002   9.91517036E-001   4.64104708E-001   9.91517046E-001
   2.30000000E+002   9.92310492E-001   4.64104722E-001   9.92310501E-001
   2.35000000E+002   9.92992877E-001   4.64104736E-001   9.92992886E-001
   2.40000000E+002   9.93638195E-001   4.64104747E-001   9.93638203E-001
   2.45000000E+002   9.94228360E-001   4.64104757E-001   9.94228366E-001
