# ./jetvheto -in n3lo-fixed-order/H125-LHC13-R04-mb-475-mt-1725-xmur200-xmuf200-log.fxd -xQ 0.0625 -out benchmarks-n3lo-smallR/H125-LHC13-R04-mb-475-mt-1725-xmur200-xmuf200-xQ0625-NNLO+NNLLa.res -scheme a -order 2 -ptmax 500.01 -fixed_order 2 -loop-mass t+b
# process = H    
# collider = pp   
# rts =  13000.000
# M   =    125.000
# muR =    250.000
# muF =    250.000
# Q   =      7.812
# p   =      5.000
# include_c1_squared =   F
# loop_mass  = t+b 
# alphas(MZ) =    0.11800
# alphas(M) =    0.11264
# alphas(muR) =    0.10244
# Rjet =      0.400
# order = NNLL
# pdf name and set = PDF4LHC15_nnlo_mc.LHgrid,    0
# matching scheme = a
# total cross sections [nb] at LO, NLOdiff, NNLOdiff, N3LOdiff =     0.010658    0.014649    0.010464    0.005358
#----------------------------------------------------------------------
# the lines that follow give the jet-veto efficiencies as a function of pt
#         pt            matched eff      resummed eff     fixed-order eff
   2.00000000E+001   5.34889867E-001   3.70480009E-001   5.35127193E-001
   2.50000000E+001   6.11899157E-001   3.71081731E-001   6.12011630E-001
   3.00000000E+001   6.70488768E-001   3.71257919E-001   6.70544774E-001
   3.50000000E+001   7.16892931E-001   3.71321615E-001   7.16922826E-001
   4.00000000E+001   7.54437786E-001   3.71348343E-001   7.54454779E-001
   4.50000000E+001   7.85374554E-001   3.71360873E-001   7.85384748E-001
   5.00000000E+001   8.11245331E-001   3.71367271E-001   8.11251726E-001
   5.50000000E+001   8.33089736E-001   3.71370768E-001   8.33093904E-001
   6.00000000E+001   8.51664499E-001   3.71372789E-001   8.51667304E-001
   6.50000000E+001   8.67695079E-001   3.71374012E-001   8.67697021E-001
   7.00000000E+001   8.81612685E-001   3.71374781E-001   8.81614063E-001
   7.50000000E+001   8.93708136E-001   3.71375282E-001   8.93709135E-001
   8.00000000E+001   9.04349483E-001   3.71375617E-001   9.04350221E-001
   8.50000000E+001   9.13659380E-001   3.71375847E-001   9.13659935E-001
   9.00000000E+001   9.21887128E-001   3.71376009E-001   9.21887551E-001
   9.50000000E+001   9.29163192E-001   3.71376124E-001   9.29163519E-001
   1.00000000E+002   9.35595839E-001   3.71376209E-001   9.35596095E-001
   1.05000000E+002   9.41398035E-001   3.71376271E-001   9.41398238E-001
   1.10000000E+002   9.46563989E-001   3.71376318E-001   9.46564151E-001
   1.15000000E+002   9.51207282E-001   3.71376354E-001   9.51207413E-001
   1.20000000E+002   9.55366387E-001   3.71376381E-001   9.55366494E-001
   1.25000000E+002   9.59103757E-001   3.71376402E-001   9.59103844E-001
   1.30000000E+002   9.62477698E-001   3.71376419E-001   9.62477770E-001
   1.35000000E+002   9.65550555E-001   3.71376433E-001   9.65550615E-001
   1.40000000E+002   9.68327705E-001   3.71376443E-001   9.68327755E-001
   1.45000000E+002   9.70842903E-001   3.71376452E-001   9.70842945E-001
   1.50000000E+002   9.73141000E-001   3.71376459E-001   9.73141036E-001
   1.55000000E+002   9.75228033E-001   3.71376465E-001   9.75228063E-001
   1.60000000E+002   9.77145599E-001   3.71376469E-001   9.77145625E-001
   1.65000000E+002   9.78896337E-001   3.71376473E-001   9.78896359E-001
   1.70000000E+002   9.80490978E-001   3.71376477E-001   9.80490997E-001
   1.75000000E+002   9.81927823E-001   3.71376479E-001   9.81927840E-001
   1.80000000E+002   9.83271483E-001   3.71376482E-001   9.83271498E-001
   1.85000000E+002   9.84504515E-001   3.71376484E-001   9.84504528E-001
   1.90000000E+002   9.85618757E-001   3.71376485E-001   9.85618768E-001
   1.95000000E+002   9.86651699E-001   3.71376487E-001   9.86651708E-001
   2.00000000E+002   9.87593014E-001   3.71376488E-001   9.87593023E-001
   2.05000000E+002   9.88467986E-001   3.71376489E-001   9.88467994E-001
   2.10000000E+002   9.89276346E-001   3.71376490E-001   9.89276353E-001
   2.15000000E+002   9.90020824E-001   3.71376491E-001   9.90020830E-001
   2.20000000E+002   9.90705460E-001   3.71376491E-001   9.90705465E-001
   2.25000000E+002   9.91333325E-001   3.71376492E-001   9.91333330E-001
   2.30000000E+002   9.91923419E-001   3.71376492E-001   9.91923423E-001
   2.35000000E+002   9.92473867E-001   3.71376493E-001   9.92473871E-001
   2.40000000E+002   9.92960793E-001   3.71376493E-001   9.92960797E-001
   2.45000000E+002   9.93427228E-001   3.71376494E-001   9.93427231E-001
