# ./jetvheto -in n3lo-fixed-order/H125-LHC13-R04-mb-475-mt-1725-xmur200-xmuf200-log.fxd -xQ 0.25 -out benchmarks-n3lo-smallR/H125-LHC13-R04-mb-475-mt-1725-xmur200-xmuf200-xQ025-N3LO+NNLLa.R0-1.0.res -scheme a -order 2 -ptmax 500.01 -fixed_order 3 -small-r -loop-mass t+b -R0 1.0
# process = H    
# collider = pp   
# rts =  13000.000
# M   =    125.000
# muR =    250.000
# muF =    250.000
# Q   =     31.250
# p   =      5.000
# include_c1_squared =   F
# loop_mass  = t+b 
# alphas(MZ) =    0.11800
# alphas(M) =    0.11264
# alphas(muR) =    0.10244
# Rjet =      0.400
# order = NNLL
# pdf name and set = PDF4LHC15_nnlo_mc.LHgrid,    0
# matching scheme = a
# total cross sections [nb] at LO, NLOdiff, NNLOdiff, N3LOdiff =     0.010658    0.014649    0.010464    0.005358
#----------------------------------------------------------------------
# the lines that follow give the jet-veto efficiencies as a function of pt
#         pt            matched eff      resummed eff     fixed-order eff
   2.00000000E+001   4.65658835E-001   5.66293843E-001   4.72417372E-001
   2.50000000E+001   5.53315833E-001   6.38085104E-001   5.58640123E-001
   3.00000000E+001   6.21027027E-001   6.79959285E-001   6.24485219E-001
   3.50000000E+001   6.75989095E-001   7.02615996E-001   6.78169499E-001
   4.00000000E+001   7.20517688E-001   7.14473548E-001   7.21886815E-001
   4.50000000E+001   7.56318825E-001   7.20726411E-001   7.57184541E-001
   5.00000000E+001   7.87618362E-001   7.24128106E-001   7.88190304E-001
   5.50000000E+001   8.13036298E-001   7.26054089E-001   8.13419167E-001
   6.00000000E+001   8.34704044E-001   7.27189790E-001   8.34967174E-001
   6.50000000E+001   8.53126073E-001   7.27885436E-001   8.53310754E-001
   7.00000000E+001   8.69802535E-001   7.28326429E-001   8.69935842E-001
   7.50000000E+001   8.83616982E-001   7.28614685E-001   8.83714379E-001
   8.00000000E+001   8.95651803E-001   7.28808299E-001   8.95724159E-001
   8.50000000E+001   9.06364188E-001   7.28941527E-001   9.06418883E-001
   9.00000000E+001   9.15525131E-001   7.29035201E-001   9.15566959E-001
   9.50000000E+001   9.24082951E-001   7.29102347E-001   9.24115484E-001
   1.00000000E+002   9.31314366E-001   7.29151320E-001   9.31339889E-001
   1.05000000E+002   9.37689321E-001   7.29187602E-001   9.37709541E-001
   1.10000000E+002   9.43217447E-001   7.29214868E-001   9.43233610E-001
   1.15000000E+002   9.48455798E-001   7.29235623E-001   9.48468868E-001
   1.20000000E+002   9.53201156E-001   7.29251612E-001   9.53211816E-001
   1.25000000E+002   9.57155301E-001   7.29264063E-001   9.57164043E-001
   1.30000000E+002   9.60916979E-001   7.29273856E-001   9.60924212E-001
   1.35000000E+002   9.64147412E-001   7.29281630E-001   9.64153428E-001
   1.40000000E+002   9.67374914E-001   7.29287854E-001   9.67379962E-001
   1.45000000E+002   9.69953868E-001   7.29292877E-001   9.69958117E-001
   1.50000000E+002   9.72483194E-001   7.29296961E-001   9.72486795E-001
   1.55000000E+002   9.74736770E-001   7.29300304E-001   9.74739837E-001
   1.60000000E+002   9.76713471E-001   7.29303059E-001   9.76716094E-001
   1.65000000E+002   9.78435887E-001   7.29305343E-001   9.78438140E-001
   1.70000000E+002   9.80252646E-001   7.29307246E-001   9.80254593E-001
   1.75000000E+002   9.81737224E-001   7.29308842E-001   9.81738911E-001
   1.80000000E+002   9.83340211E-001   7.29310186E-001   9.83341681E-001
   1.85000000E+002   9.84502214E-001   7.29311324E-001   9.84503497E-001
   1.90000000E+002   9.85677455E-001   7.29312291E-001   9.85678580E-001
   1.95000000E+002   9.86726364E-001   7.29313117E-001   9.86727353E-001
   2.00000000E+002   9.87866307E-001   7.29313826E-001   9.87867180E-001
   2.05000000E+002   9.88666138E-001   7.29314435E-001   9.88666910E-001
   2.10000000E+002   9.89427748E-001   7.29314962E-001   9.89428433E-001
   2.15000000E+002   9.90241799E-001   7.29315418E-001   9.90242408E-001
   2.20000000E+002   9.90995260E-001   7.29315815E-001   9.90995804E-001
   2.25000000E+002   9.91586485E-001   7.29316161E-001   9.91586972E-001
   2.30000000E+002   9.92154513E-001   7.29316464E-001   9.92154949E-001
   2.35000000E+002   9.92740886E-001   7.29316730E-001   9.92741278E-001
   2.40000000E+002   9.93250905E-001   7.29316964E-001   9.93251258E-001
   2.45000000E+002   9.93744261E-001   7.29317171E-001   9.93744580E-001
