# ./jetvheto -in n3lo-fixed-order/H125-LHC13-R04-mb-0-mt-1725-xmur050-xmuf050-log.fxd -xQ 0.333 -out benchmarks-n3lo-smallR/H125-LHC13-R04-mb-0-mt-1725-xmur050-xmuf050-xQ033-N3LO+NNLLb.res -scheme b -order 2 -ptmax 500.01 -fixed_order 3 -loop-mass t
# process = H    
# collider = pp   
# rts =  13000.000
# M   =    125.000
# muR =     62.500
# muF =     62.500
# Q   =     41.625
# p   =      5.000
# include_c1_squared =   F
# loop_mass  = t   
# alphas(MZ) =    0.11800
# alphas(M) =    0.11264
# alphas(muR) =    0.12516
# Rjet =      0.400
# order = NNLL
# pdf name and set = PDF4LHC15_nnlo_mc.LHgrid,    0
# matching scheme = b
# total cross sections [nb] at LO, NLOdiff, NNLOdiff, N3LOdiff =     0.015885    0.020561    0.008998    0.001413
#----------------------------------------------------------------------
# the lines that follow give the jet-veto efficiencies as a function of pt
#         pt            matched eff      resummed eff     fixed-order eff
   2.00000000E+001   4.49867381E-001   4.88248833E-001   4.41643521E-001
   2.50000000E+001   5.35742736E-001   5.65335583E-001   5.29528045E-001
   3.00000000E+001   6.08143763E-001   6.17611392E-001   6.04131024E-001
   3.50000000E+001   6.66038571E-001   6.51549773E-001   6.63337130E-001
   4.00000000E+001   7.11215911E-001   6.72660283E-001   7.09302441E-001
   4.50000000E+001   7.50643974E-001   6.85401504E-001   7.49371437E-001
   5.00000000E+001   7.82578484E-001   6.93009126E-001   7.81702411E-001
   5.50000000E+001   8.10063510E-001   6.97583442E-001   8.09465789E-001
   6.00000000E+001   8.32799218E-001   7.00385147E-001   8.32379427E-001
   6.50000000E+001   8.53796792E-001   7.02143078E-001   8.53504482E-001
   7.00000000E+001   8.70068920E-001   7.03274876E-001   8.69854849E-001
   7.50000000E+001   8.84598185E-001   7.04022229E-001   8.84440584E-001
   8.00000000E+001   8.97700204E-001   7.04527637E-001   8.97583035E-001
   8.50000000E+001   9.09321612E-001   7.04877040E-001   9.09233323E-001
   9.00000000E+001   9.19570105E-001   7.05123510E-001   9.19502663E-001
   9.50000000E+001   9.27780995E-001   7.05300592E-001   9.27728280E-001
   1.00000000E+002   9.35604608E-001   7.05429964E-001   9.35563225E-001
   1.05000000E+002   9.41821460E-001   7.05525931E-001   9.41788367E-001
   1.10000000E+002   9.47529710E-001   7.05598113E-001   9.47503067E-001
   1.15000000E+002   9.52924547E-001   7.05653101E-001   9.52903001E-001
   1.20000000E+002   9.57783961E-001   7.05695482E-001   9.57766396E-001
   1.25000000E+002   9.61836277E-001   7.05728499E-001   9.61821780E-001
   1.30000000E+002   9.65332922E-001   7.05754476E-001   9.65320871E-001
   1.35000000E+002   9.68799960E-001   7.05775103E-001   9.68789919E-001
   1.40000000E+002   9.71959769E-001   7.05791622E-001   9.71951352E-001
   1.45000000E+002   9.74709990E-001   7.05804955E-001   9.74702884E-001
   1.50000000E+002   9.76860506E-001   7.05815796E-001   9.76854447E-001
   1.55000000E+002   9.79294758E-001   7.05824672E-001   9.79289601E-001
   1.60000000E+002   9.81475091E-001   7.05831987E-001   9.81470679E-001
   1.65000000E+002   9.82820740E-001   7.05838050E-001   9.82816919E-001
   1.70000000E+002   9.84550748E-001   7.05843106E-001   9.84547446E-001
   1.75000000E+002   9.86145390E-001   7.05847344E-001   9.86142527E-001
   1.80000000E+002   9.87368126E-001   7.05850913E-001   9.87365627E-001
   1.85000000E+002   9.88491757E-001   7.05853935E-001   9.88489569E-001
   1.90000000E+002   9.89641721E-001   7.05856504E-001   9.89639801E-001
   1.95000000E+002   9.90703412E-001   7.05858698E-001   9.90701722E-001
   2.00000000E+002   9.91642024E-001   7.05860579E-001   9.91640532E-001
   2.05000000E+002   9.92382595E-001   7.05862198E-001   9.92381271E-001
   2.10000000E+002   9.93125531E-001   7.05863597E-001   9.93124356E-001
   2.15000000E+002   9.93703215E-001   7.05864809E-001   9.93702166E-001
   2.20000000E+002   9.94524904E-001   7.05865864E-001   9.94523970E-001
   2.25000000E+002   9.94952053E-001   7.05866783E-001   9.94951215E-001
   2.30000000E+002   9.95477475E-001   7.05867589E-001   9.95476723E-001
   2.35000000E+002   9.95860196E-001   7.05868295E-001   9.95859519E-001
   2.40000000E+002   9.96277364E-001   7.05868917E-001   9.96276754E-001
   2.45000000E+002   9.96765030E-001   7.05869466E-001   9.96764480E-001
