# ./jetvheto -in n3lo-fixed-order/H125-LHC13-R04-heft-xmur200-xmuf200-log.fxd -xQ 0.50 -out benchmarks-n3lo-smallR/H125-LHC13-R04-heft-xmur200-xmuf200-xQ050-N3LO+NNLLb.res -scheme b -order 2 -ptmax 500.01 -fixed_order 3
# process = H    
# collider = pp   
# rts =  13000.000
# M   =    125.000
# muR =    250.000
# muF =    250.000
# Q   =     62.500
# p   =      5.000
# include_c1_squared =   F
# loop_mass  = none
# alphas(MZ) =    0.11800
# alphas(M) =    0.11264
# alphas(muR) =    0.10244
# Rjet =      0.400
# order = NNLL
# pdf name and set = PDF4LHC15_nnlo_mc.LHgrid,    0
# matching scheme = b
# total cross sections [nb] at LO, NLOdiff, NNLOdiff, N3LOdiff =     0.011138    0.014625    0.010464    0.005358
#----------------------------------------------------------------------
# the lines that follow give the jet-veto efficiencies as a function of pt
#         pt            matched eff      resummed eff     fixed-order eff
   2.00000000E+001   4.36073813E-001   5.37903960E-001   4.05581169E-001
   2.50000000E+001   5.22961782E-001   6.22206532E-001   5.03593572E-001
   3.00000000E+001   5.91727022E-001   6.81914876E-001   5.78260533E-001
   3.50000000E+001   6.48547515E-001   7.23682073E-001   6.38745828E-001
   4.00000000E+001   6.95243792E-001   7.52355133E-001   6.87811581E-001
   4.50000000E+001   7.33254729E-001   7.71532869E-001   7.27456724E-001
   5.00000000E+001   7.66615550E-001   7.83963054E-001   7.62096488E-001
   5.50000000E+001   7.93852203E-001   7.91761059E-001   7.90309877E-001
   6.00000000E+001   8.17137369E-001   7.96515341E-001   8.14374962E-001
   6.50000000E+001   8.36900635E-001   7.99357180E-001   8.34755290E-001
   7.00000000E+001   8.54908907E-001   8.01042282E-001   8.53247806E-001
   7.50000000E+001   8.69815029E-001   8.02045524E-001   8.68528249E-001
   8.00000000E+001   8.82847292E-001   8.02651475E-001   8.81847863E-001
   8.50000000E+001   8.94479609E-001   8.03025589E-001   8.93700078E-001
   9.00000000E+001   9.04481678E-001   8.03262779E-001   9.03869957E-001
   9.50000000E+001   9.13848177E-001   8.03417479E-001   9.13364896E-001
   1.00000000E+002   9.21738321E-001   8.03521287E-001   9.21353866E-001
   1.05000000E+002   9.28708777E-001   8.03592883E-001   9.28400606E-001
   1.10000000E+002   9.34775136E-001   8.03643522E-001   9.34526304E-001
   1.15000000E+002   9.40510919E-001   8.03680166E-001   9.40308524E-001
   1.20000000E+002   9.45734662E-001   8.03707229E-001   9.45568871E-001
   1.25000000E+002   9.50070625E-001   8.03727583E-001   9.49933938E-001
   1.30000000E+002   9.54209081E-001   8.03743139E-001   9.54095652E-001
   1.35000000E+002   9.57777921E-001   8.03755199E-001   9.57683216E-001
   1.40000000E+002   9.61348405E-001   8.03764668E-001   9.61268867E-001
   1.45000000E+002   9.64192166E-001   8.03772187E-001   9.64125014E-001
   1.50000000E+002   9.66982395E-001   8.03778219E-001   9.66925398E-001
   1.55000000E+002   9.69477285E-001   8.03783103E-001   9.69428673E-001
   1.60000000E+002   9.71674590E-001   8.03787089E-001   9.71632933E-001
   1.65000000E+002   9.73580659E-001   8.03790368E-001   9.73544807E-001
   1.70000000E+002   9.75603494E-001   8.03793084E-001   9.75572505E-001
   1.75000000E+002   9.77261675E-001   8.03795348E-001   9.77234787E-001
   1.80000000E+002   9.79049881E-001   8.03797246E-001   9.79026459E-001
   1.85000000E+002   9.80354737E-001   8.03798846E-001   9.80334263E-001
   1.90000000E+002   9.81688246E-001   8.03800202E-001   9.81670288E-001
   1.95000000E+002   9.82877791E-001   8.03801357E-001   9.82861989E-001
   2.00000000E+002   9.84173783E-001   8.03802344E-001   9.84159832E-001
   2.05000000E+002   9.85087578E-001   8.03803192E-001   9.85075228E-001
   2.10000000E+002   9.85961276E-001   8.03803924E-001   9.85950311E-001
   2.15000000E+002   9.86901596E-001   8.03804556E-001   9.86891834E-001
   2.20000000E+002   9.87774603E-001   8.03805106E-001   9.87765890E-001
   2.25000000E+002   9.88468973E-001   8.03805585E-001   9.88461177E-001
   2.30000000E+002   9.89137157E-001   8.03806004E-001   9.89130165E-001
   2.35000000E+002   9.89826064E-001   8.03806371E-001   9.89819779E-001
   2.40000000E+002   9.90438086E-001   8.03806694E-001   9.90432423E-001
   2.45000000E+002   9.91028931E-001   8.03806978E-001   9.91023818E-001
