# ./jetvheto -in n3lo-fixed-order/H125-LHC13-R04-mb-0-mt-1725-xmur050-xmuf050-log.fxd -xQ 0.125 -out benchmarks-n3lo-smallR/H125-LHC13-R04-mb-0-mt-1725-xmur050-xmuf050-xQ0125-N3LO+NNLLa.R0-2.0.res -scheme a -order 2 -ptmax 500.01 -small-r -fixed_order 3 -loop-mass t -R0 2.0
# process = H    
# collider = pp   
# rts =  13000.000
# M   =    125.000
# muR =     62.500
# muF =     62.500
# Q   =     15.625
# p   =      5.000
# include_c1_squared =   F
# loop_mass  = t   
# alphas(MZ) =    0.11800
# alphas(M) =    0.11264
# alphas(muR) =    0.12516
# Rjet =      0.400
# order = NNLL
# pdf name and set = PDF4LHC15_nnlo_mc.LHgrid,    0
# matching scheme = a
# total cross sections [nb] at LO, NLOdiff, NNLOdiff, N3LOdiff =     0.015885    0.020561    0.008998    0.001413
#----------------------------------------------------------------------
# the lines that follow give the jet-veto efficiencies as a function of pt
#         pt            matched eff      resummed eff     fixed-order eff
   2.00000000E+001   4.58274116E-001   4.41679570E-001   4.58478332E-001
   2.50000000E+001   5.43594982E-001   4.56099258E-001   5.43713081E-001
   3.00000000E+001   6.15964735E-001   4.60798571E-001   6.16066731E-001
   3.50000000E+001   6.73421049E-001   4.62559549E-001   6.73487735E-001
   4.00000000E+001   7.18027995E-001   4.63308832E-001   7.18067162E-001
   4.50000000E+001   7.56902284E-001   4.63662220E-001   7.56928051E-001
   5.00000000E+001   7.88267729E-001   4.63843210E-001   7.88284226E-001
   5.50000000E+001   8.15199377E-001   4.63942300E-001   8.15210520E-001
   6.00000000E+001   8.37425765E-001   4.63999609E-001   8.37433297E-001
   6.50000000E+001   8.57916004E-001   4.64034306E-001   8.57921417E-001
   7.00000000E+001   8.73775032E-001   4.64056143E-001   8.73778810E-001
   7.50000000E+001   8.87922046E-001   4.64070351E-001   8.87924776E-001
   8.00000000E+001   9.00668947E-001   4.64079865E-001   9.00670973E-001
   8.50000000E+001   9.11968467E-001   4.64086398E-001   9.11969998E-001
   9.00000000E+001   9.21928537E-001   4.64090984E-001   9.21929710E-001
   9.50000000E+001   9.29906424E-001   4.64094269E-001   9.29907319E-001
   1.00000000E+002   9.37505336E-001   4.64096662E-001   9.37506036E-001
   1.05000000E+002   9.43542940E-001   4.64098435E-001   9.43543485E-001
   1.10000000E+002   9.49085453E-001   4.64099766E-001   9.49085884E-001
   1.15000000E+002   9.54322659E-001   4.64100780E-001   9.54323006E-001
   1.20000000E+002   9.59039486E-001   4.64101560E-001   9.59039767E-001
   1.25000000E+002   9.62972650E-001   4.64102167E-001   9.62972878E-001
   1.30000000E+002   9.66366283E-001   4.64102645E-001   9.66366470E-001
   1.35000000E+002   9.69730769E-001   4.64103024E-001   9.69730923E-001
   1.40000000E+002   9.72796908E-001   4.64103328E-001   9.72797037E-001
   1.45000000E+002   9.75465500E-001   4.64103573E-001   9.75465608E-001
   1.50000000E+002   9.77552210E-001   4.64103772E-001   9.77552300E-001
   1.55000000E+002   9.79913956E-001   4.64103935E-001   9.79914033E-001
   1.60000000E+002   9.82029285E-001   4.64104070E-001   9.82029350E-001
   1.65000000E+002   9.83334944E-001   4.64104181E-001   9.83335000E-001
   1.70000000E+002   9.85013303E-001   4.64104274E-001   9.85013351E-001
   1.75000000E+002   9.86560297E-001   4.64104352E-001   9.86560338E-001
   1.80000000E+002   9.87746526E-001   4.64104417E-001   9.87746562E-001
   1.85000000E+002   9.88836585E-001   4.64104473E-001   9.88836616E-001
   1.90000000E+002   9.89952141E-001   4.64104520E-001   9.89952168E-001
   1.95000000E+002   9.90982047E-001   4.64104560E-001   9.90982071E-001
   2.00000000E+002   9.91892554E-001   4.64104595E-001   9.91892575E-001
   2.05000000E+002   9.92610963E-001   4.64104624E-001   9.92610981E-001
   2.10000000E+002   9.93331644E-001   4.64104650E-001   9.93331661E-001
   2.15000000E+002   9.93892036E-001   4.64104672E-001   9.93892050E-001
   2.20000000E+002   9.94689063E-001   4.64104692E-001   9.94689076E-001
   2.25000000E+002   9.95103428E-001   4.64104709E-001   9.95103439E-001
   2.30000000E+002   9.95613092E-001   4.64104723E-001   9.95613102E-001
   2.35000000E+002   9.95984348E-001   4.64104736E-001   9.95984357E-001
   2.40000000E+002   9.96389004E-001   4.64104748E-001   9.96389013E-001
   2.45000000E+002   9.96862025E-001   4.64104758E-001   9.96862033E-001
