# ./jetvheto -in n3lo-fixed-order/H125-LHC13-R04-mb-475-mt-1725-xmur025-xmuf025-log.fxd -xQ 0.0625 -out benchmarks-n3lo-smallR/H125-LHC13-R04-mb-475-mt-1725-xmur025-xmuf025-xQ0625-NNLO+NNLLb.res -scheme b -order 2 -ptmax 500.01 -fixed_order 2 -loop-mass t+b
# process = H    
# collider = pp   
# rts =  13000.000
# M   =    125.000
# muR =     31.250
# muF =     31.250
# Q   =      7.812
# p   =      5.000
# include_c1_squared =   F
# loop_mass  = t+b 
# alphas(MZ) =    0.11800
# alphas(M) =    0.11264
# alphas(muR) =    0.14091
# Rjet =      0.400
# order = NNLL
# pdf name and set = PDF4LHC15_nnlo_mc.LHgrid,    0
# matching scheme = b
# total cross sections [nb] at LO, NLOdiff, NNLOdiff, N3LOdiff =     0.016156    0.025248    0.006043   -0.002471
#----------------------------------------------------------------------
# the lines that follow give the jet-veto efficiencies as a function of pt
#         pt            matched eff      resummed eff     fixed-order eff
   2.00000000E+001   3.29281607E-001   4.79759448E-002   3.28893509E-001
   2.50000000E+001   4.31004417E-001   4.81378494E-002   4.30904941E-001
   3.00000000E+001   5.12863504E-001   4.81852893E-002   5.12833977E-001
   3.50000000E+001   5.80190414E-001   4.82024438E-002   5.80181023E-001
   4.00000000E+001   6.35908051E-001   4.82096427E-002   6.35905108E-001
   4.50000000E+001   6.82675784E-001   4.82130174E-002   6.82675043E-001
   5.00000000E+001   7.22156950E-001   4.82147407E-002   7.22156956E-001
   5.50000000E+001   7.55713969E-001   4.82156828E-002   7.55714207E-001
   6.00000000E+001   7.84550695E-001   4.82162271E-002   7.84550979E-001
   6.50000000E+001   8.09451366E-001   4.82165565E-002   8.09451630E-001
   7.00000000E+001   8.31222330E-001   4.82167638E-002   8.31222556E-001
   7.50000000E+001   8.49887055E-001   4.82168986E-002   8.49887242E-001
   8.00000000E+001   8.66464185E-001   4.82169889E-002   8.66464336E-001
   8.50000000E+001   8.81063351E-001   4.82170509E-002   8.81063473E-001
   9.00000000E+001   8.93887028E-001   4.82170944E-002   8.93887126E-001
   9.50000000E+001   9.05074509E-001   4.82171255E-002   9.05074588E-001
   1.00000000E+002   9.15030561E-001   4.82171482E-002   9.15030625E-001
   1.05000000E+002   9.23956017E-001   4.82171651E-002   9.23956070E-001
   1.10000000E+002   9.31856505E-001   4.82171777E-002   9.31856548E-001
   1.15000000E+002   9.38969672E-001   4.82171873E-002   9.38969708E-001
   1.20000000E+002   9.45345030E-001   4.82171947E-002   9.45345060E-001
   1.25000000E+002   9.50978293E-001   4.82172005E-002   9.50978318E-001
   1.30000000E+002   9.56084567E-001   4.82172050E-002   9.56084587E-001
   1.35000000E+002   9.60666423E-001   4.82172086E-002   9.60666440E-001
   1.40000000E+002   9.64759956E-001   4.82172115E-002   9.64759970E-001
   1.45000000E+002   9.68535023E-001   4.82172138E-002   9.68535035E-001
   1.50000000E+002   9.71892220E-001   4.82172157E-002   9.71892230E-001
   1.55000000E+002   9.74927998E-001   4.82172172E-002   9.74928007E-001
   1.60000000E+002   9.77699843E-001   4.82172185E-002   9.77699851E-001
   1.65000000E+002   9.80200532E-001   4.82172196E-002   9.80200538E-001
   1.70000000E+002   9.82438112E-001   4.82172204E-002   9.82438117E-001
   1.75000000E+002   9.84476038E-001   4.82172212E-002   9.84476043E-001
   1.80000000E+002   9.86309049E-001   4.82172218E-002   9.86309053E-001
   1.85000000E+002   9.87951361E-001   4.82172223E-002   9.87951365E-001
   1.90000000E+002   9.89478605E-001   4.82172228E-002   9.89478609E-001
   1.95000000E+002   9.90872457E-001   4.82172231E-002   9.90872460E-001
   2.00000000E+002   9.92119275E-001   4.82172235E-002   9.92119277E-001
   2.05000000E+002   9.93273287E-001   4.82172238E-002   9.93273289E-001
   2.10000000E+002   9.94325296E-001   4.82172240E-002   9.94325298E-001
   2.15000000E+002   9.95232633E-001   4.82172242E-002   9.95232634E-001
   2.20000000E+002   9.96095660E-001   4.82172244E-002   9.96095662E-001
   2.25000000E+002   9.96872885E-001   4.82172246E-002   9.96872886E-001
   2.30000000E+002   9.97556822E-001   4.82172247E-002   9.97556823E-001
   2.35000000E+002   9.98194421E-001   4.82172248E-002   9.98194422E-001
   2.40000000E+002   9.98751814E-001   4.82172249E-002   9.98751815E-001
   2.45000000E+002   9.99255863E-001   4.82172250E-002   9.99255864E-001
