# ./jetvheto -in n3lo-fixed-order/H125-LHC13-R04-mb-0-mt-1725-xmur025-xmuf025-log.fxd -xQ 0.5 -out benchmarks-n3lo-smallR/H125-LHC13-R04-mb-0-mt-1725-xmur025-xmuf025-xQ050-N3LO+NNLLa.R0-1.5.res -scheme a -order 2 -ptmax 500.01 -small-r -fixed_order 3 -loop-mass t -R0 1.5
# process = H    
# collider = pp   
# rts =  13000.000
# M   =    125.000
# muR =     31.250
# muF =     31.250
# Q   =     62.500
# p   =      5.000
# include_c1_squared =   F
# loop_mass  = t   
# alphas(MZ) =    0.11800
# alphas(M) =    0.11264
# alphas(muR) =    0.14091
# Rjet =      0.400
# order = NNLL
# pdf name and set = PDF4LHC15_nnlo_mc.LHgrid,    0
# matching scheme = a
# total cross sections [nb] at LO, NLOdiff, NNLOdiff, N3LOdiff =     0.018140    0.025356    0.006043   -0.002471
#----------------------------------------------------------------------
# the lines that follow give the jet-veto efficiencies as a function of pt
#         pt            matched eff      resummed eff     fixed-order eff
   2.00000000E+001   4.92955037E-001   5.04300905E-001   4.60281449E-001
   2.50000000E+001   5.77424543E-001   5.70480113E-001   5.50385931E-001
   3.00000000E+001   6.43113795E-001   6.16405150E-001   6.21139730E-001
   3.50000000E+001   6.95120241E-001   6.47837504E-001   6.77588964E-001
   4.00000000E+001   7.38156632E-001   6.68898417E-001   7.24527077E-001
   4.50000000E+001   7.74533921E-001   6.82560776E-001   7.64122223E-001
   5.00000000E+001   8.04710193E-001   6.91061107E-001   7.96835644E-001
   5.50000000E+001   8.31720384E-001   6.96106988E-001   8.25828649E-001
   6.00000000E+001   8.53552253E-001   6.98959686E-001   8.49134989E-001
   6.50000000E+001   8.70177491E-001   7.00496902E-001   8.66851489E-001
   7.00000000E+001   8.86818252E-001   7.01287054E-001   8.84316376E-001
   7.50000000E+001   9.00963996E-001   7.01672836E-001   8.99072184E-001
   8.00000000E+001   9.12221228E-001   7.01848656E-001   9.10775817E-001
   8.50000000E+001   9.22973404E-001   7.01919357E-001   9.21861220E-001
   9.00000000E+001   9.32392662E-001   7.01939540E-001   9.31529078E-001
   9.50000000E+001   9.38425582E-001   7.01936848E-001   9.37748099E-001
   1.00000000E+002   9.46411681E-001   7.01924911E-001   9.45876515E-001
   1.05000000E+002   9.51817092E-001   7.01910229E-001   9.51390040E-001
   1.10000000E+002   9.58004410E-001   7.01895740E-001   9.57661210E-001
   1.15000000E+002   9.63144889E-001   7.01882637E-001   9.62866750E-001
   1.20000000E+002   9.66773230E-001   7.01871283E-001   9.66546049E-001
   1.25000000E+002   9.69804365E-001   7.01861661E-001   9.69617581E-001
   1.30000000E+002   9.73336753E-001   7.01853605E-001   9.73182178E-001
   1.35000000E+002   9.76025242E-001   7.01846898E-001   9.75896468E-001
   1.40000000E+002   9.78679019E-001   7.01841327E-001   9.78571151E-001
   1.45000000E+002   9.81116666E-001   7.01836699E-001   9.81025787E-001
   1.50000000E+002   9.83094033E-001   7.01832849E-001   9.83017075E-001
   1.55000000E+002   9.84929592E-001   7.01829639E-001   9.84864101E-001
   1.60000000E+002   9.87111300E-001   7.01826954E-001   9.87055315E-001
   1.65000000E+002   9.88422899E-001   7.01824701E-001   9.88374802E-001
   1.70000000E+002   9.89393558E-001   7.01822804E-001   9.89352070E-001
   1.75000000E+002   9.90976530E-001   7.01821200E-001   9.90940607E-001
   1.80000000E+002   9.91749168E-001   7.01819839E-001   9.91717934E-001
   1.85000000E+002   9.92925480E-001   7.01818681E-001   9.92898239E-001
   1.90000000E+002   9.93703603E-001   7.01817691E-001   9.93679753E-001
   1.95000000E+002   9.94692616E-001   7.01816842E-001   9.94671667E-001
   2.00000000E+002   9.95211888E-001   7.01816112E-001   9.95193430E-001
   2.05000000E+002   9.95773730E-001   7.01815481E-001   9.95757415E-001
   2.10000000E+002   9.96278653E-001   7.01814935E-001   9.96264190E-001
   2.15000000E+002   9.97005259E-001   7.01814460E-001   9.96992409E-001
   2.20000000E+002   9.97355129E-001   7.01814047E-001   9.97343677E-001
   2.25000000E+002   9.97927040E-001   7.01813685E-001   9.97916811E-001
   2.30000000E+002   9.98234943E-001   7.01813369E-001   9.98225783E-001
   2.35000000E+002   9.98353926E-001   7.01813090E-001   9.98345703E-001
   2.40000000E+002   9.98781974E-001   7.01812845E-001   9.98774579E-001
   2.45000000E+002   9.99103785E-001   7.01812628E-001   9.99097118E-001
