# ./jetvheto -in n3lo-fixed-order/H125-LHC13-R04-mb-0-mt-1725-xmur050-xmuf050-log.fxd -xQ 0.333 -out benchmarks-n3lo-smallR/H125-LHC13-R04-mb-0-mt-1725-xmur050-xmuf050-xQ033-N3LO+NNLLa.R0-2.0.res -scheme a -order 2 -ptmax 500.01 -small-r -fixed_order 3 -loop-mass t -R0 2.0
# process = H    
# collider = pp   
# rts =  13000.000
# M   =    125.000
# muR =     62.500
# muF =     62.500
# Q   =     41.625
# p   =      5.000
# include_c1_squared =   F
# loop_mass  = t   
# alphas(MZ) =    0.11800
# alphas(M) =    0.11264
# alphas(muR) =    0.12516
# Rjet =      0.400
# order = NNLL
# pdf name and set = PDF4LHC15_nnlo_mc.LHgrid,    0
# matching scheme = a
# total cross sections [nb] at LO, NLOdiff, NNLOdiff, N3LOdiff =     0.015885    0.020561    0.008998    0.001413
#----------------------------------------------------------------------
# the lines that follow give the jet-veto efficiencies as a function of pt
#         pt            matched eff      resummed eff     fixed-order eff
   2.00000000E+001   4.63716466E-001   4.96330581E-001   4.58478332E-001
   2.50000000E+001   5.47991151E-001   5.70633680E-001   5.43713081E-001
   3.00000000E+001   6.18894784E-001   6.20967807E-001   6.16066731E-001
   3.50000000E+001   6.75480848E-001   6.53629984E-001   6.73487735E-001
   4.00000000E+001   7.19560157E-001   6.73939975E-001   7.18067162E-001
   4.50000000E+001   7.57957691E-001   6.86194365E-001   7.56928051E-001
   5.00000000E+001   7.89017724E-001   6.93509313E-001   7.88284226E-001
   5.50000000E+001   8.15723685E-001   6.97906678E-001   8.15210520E-001
   6.00000000E+001   8.37801448E-001   7.00599556E-001   8.37433297E-001
   6.50000000E+001   8.58181917E-001   7.02289006E-001   8.57921417E-001
   7.00000000E+001   8.73972356E-001   7.03376628E-001   8.73778810E-001
   7.50000000E+001   8.88068893E-001   7.04094770E-001   8.87924776E-001
   8.00000000E+001   9.00779134E-001   7.04580406E-001   9.00670973E-001
   8.50000000E+001   9.12052154E-001   7.04916131E-001   9.11969998E-001
   9.00000000E+001   9.21992899E-001   7.05152948E-001   9.21929710E-001
   9.50000000E+001   9.29956991E-001   7.05323092E-001   9.29907319E-001
   1.00000000E+002   9.37545225E-001   7.05447394E-001   9.37506036E-001
   1.05000000E+002   9.43574953E-001   7.05539599E-001   9.43543485E-001
   1.10000000E+002   9.49111308E-001   7.05608952E-001   9.49085884E-001
   1.15000000E+002   9.54343632E-001   7.05661784E-001   9.54323006E-001
   1.20000000E+002   9.59056630E-001   7.05702503E-001   9.59039767E-001
   1.25000000E+002   9.62986829E-001   7.05734225E-001   9.62972878E-001
   1.30000000E+002   9.66378090E-001   7.05759184E-001   9.66366470E-001
   1.35000000E+002   9.69740624E-001   7.05779002E-001   9.69730923E-001
   1.40000000E+002   9.72805183E-001   7.05794873E-001   9.72797037E-001
   1.45000000E+002   9.75472496E-001   7.05807683E-001   9.75465608E-001
   1.50000000E+002   9.77558180E-001   7.05818099E-001   9.77552300E-001
   1.55000000E+002   9.79919044E-001   7.05826627E-001   9.79914033E-001
   1.60000000E+002   9.82033642E-001   7.05833655E-001   9.82029350E-001
   1.65000000E+002   9.83338719E-001   7.05839481E-001   9.83335000E-001
   1.70000000E+002   9.85016567E-001   7.05844338E-001   9.85013351E-001
   1.75000000E+002   9.86563130E-001   7.05848409E-001   9.86560338E-001
   1.80000000E+002   9.87749000E-001   7.05851839E-001   9.87746562E-001
   1.85000000E+002   9.88838752E-001   7.05854742E-001   9.88836616E-001
   1.90000000E+002   9.89954043E-001   7.05857211E-001   9.89952168E-001
   1.95000000E+002   9.90983722E-001   7.05859319E-001   9.90982071E-001
   2.00000000E+002   9.91894034E-001   7.05861126E-001   9.91892575E-001
   2.05000000E+002   9.92612275E-001   7.05862682E-001   9.92610981E-001
   2.10000000E+002   9.93332811E-001   7.05864025E-001   9.93331661E-001
   2.15000000E+002   9.93893076E-001   7.05865190E-001   9.93892050E-001
   2.20000000E+002   9.94689990E-001   7.05866203E-001   9.94689076E-001
   2.25000000E+002   9.95104259E-001   7.05867087E-001   9.95103439E-001
   2.30000000E+002   9.95613839E-001   7.05867860E-001   9.95613102E-001
   2.35000000E+002   9.95985020E-001   7.05868539E-001   9.95984357E-001
   2.40000000E+002   9.96389610E-001   7.05869137E-001   9.96389013E-001
   2.45000000E+002   9.96862572E-001   7.05869664E-001   9.96862033E-001
