# ./jetvheto -in n3lo-fixed-order/H125-LHC13-R04-mb-475-mt-1725-xmur050-xmuf025-log.fxd -xQ 0.5 -out benchmarks-n3lo-smallR/H125-LHC13-R04-mb-475-mt-1725-xmur050-xmuf025-xQ050-NNLO+NNLLa.R0-1.5.res -scheme a -order 2 -ptmax 500.01 -fixed_order 2 -small-r -loop-mass t+b -R0 1.5
# process = H    
# collider = pp   
# rts =  13000.000
# M   =    125.000
# muR =     62.500
# muF =     31.250
# Q   =     62.500
# p   =      5.000
# include_c1_squared =   F
# loop_mass  = t+b 
# alphas(MZ) =    0.11800
# alphas(M) =    0.11264
# alphas(muR) =    0.12516
# Rjet =      0.400
# order = NNLL
# pdf name and set = PDF4LHC15_nnlo_mc.LHgrid,    0
# matching scheme = a
# total cross sections [nb] at LO, NLOdiff, NNLOdiff, N3LOdiff =     0.012926    0.020318    0.009723    0.001827
#----------------------------------------------------------------------
# the lines that follow give the jet-veto efficiencies as a function of pt
#         pt            matched eff      resummed eff     fixed-order eff
   2.00000000E+001   4.45900080E-001   4.68195069E-001   4.49376256E-001
   2.50000000E+001   5.33438972E-001   5.43591569E-001   5.34025121E-001
   3.00000000E+001   6.03233255E-001   5.97489405E-001   6.00744622E-001
   3.50000000E+001   6.59724331E-001   6.35544521E-001   6.55033276E-001
   4.00000000E+001   7.05626508E-001   6.61974619E-001   6.99725943E-001
   4.50000000E+001   7.43327394E-001   6.79900375E-001   7.37098941E-001
   5.00000000E+001   7.74613468E-001   6.91715018E-001   7.68680039E-001
   5.50000000E+001   8.00767525E-001   6.99282919E-001   7.95502115E-001
   6.00000000E+001   8.23023334E-001   7.04017396E-001   8.18572628E-001
   6.50000000E+001   8.42182932E-001   7.06936772E-001   8.38542465E-001
   7.00000000E+001   8.58959676E-001   7.08731674E-001   8.56043590E-001
   7.50000000E+001   8.73430577E-001   7.09844456E-001   8.71122230E-001
   8.00000000E+001   8.86341963E-001   7.10546512E-001   8.84524140E-001
   8.50000000E+001   8.97807969E-001   7.10999773E-001   8.96376665E-001
   9.00000000E+001   9.07954951E-001   7.11300036E-001   9.06824852E-001
   9.50000000E+001   9.16889839E-001   7.11504206E-001   9.15993237E-001
   1.00000000E+002   9.24888139E-001   7.11646547E-001   9.24172569E-001
   1.05000000E+002   9.32109712E-001   7.11748099E-001   9.31534780E-001
   1.10000000E+002   9.38541981E-001   7.11822075E-001   9.38076899E-001
   1.15000000E+002   9.44366212E-001   7.11876978E-001   9.43987376E-001
   1.20000000E+002   9.49632587E-001   7.11918405E-001   9.49321865E-001
   1.25000000E+002   9.54333639E-001   7.11950129E-001   9.54077090E-001
   1.30000000E+002   9.58601136E-001   7.11974743E-001   9.58388001E-001
   1.35000000E+002   9.62446009E-001   7.11994067E-001   9.62267886E-001
   1.40000000E+002   9.65914065E-001   7.12009399E-001   9.65764337E-001
   1.45000000E+002   9.69122576E-001   7.12021681E-001   9.68996025E-001
   1.50000000E+002   9.72004391E-001   7.12031606E-001   9.71896874E-001
   1.55000000E+002   9.74626287E-001   7.12039690E-001   9.74534494E-001
   1.60000000E+002   9.77028869E-001   7.12046322E-001   9.76950138E-001
   1.65000000E+002   9.79204085E-001   7.12051802E-001   9.79136265E-001
   1.70000000E+002   9.81175748E-001   7.12056356E-001   9.81117078E-001
   1.75000000E+002   9.82971239E-001   7.12060164E-001   9.82920289E-001
   1.80000000E+002   9.84601717E-001   7.12063365E-001   9.84557304E-001
   1.85000000E+002   9.86081918E-001   7.12066070E-001   9.86043063E-001
   1.90000000E+002   9.87457137E-001   7.12068367E-001   9.87423030E-001
   1.95000000E+002   9.88717145E-001   7.12070325E-001   9.88687110E-001
   2.00000000E+002   9.89861592E-001   7.12072002E-001   9.89835060E-001
   2.05000000E+002   9.90919948E-001   7.12073444E-001   9.90896442E-001
   2.10000000E+002   9.91889263E-001   7.12074689E-001   9.91868380E-001
   2.15000000E+002   9.92744440E-001   7.12075767E-001   9.92725838E-001
   2.20000000E+002   9.93553550E-001   7.12076704E-001   9.93536937E-001
   2.25000000E+002   9.94288926E-001   7.12077521E-001   9.94274053E-001
   2.30000000E+002   9.94950860E-001   7.12078236E-001   9.94937514E-001
   2.35000000E+002   9.95569220E-001   7.12078863E-001   9.95557216E-001
   2.40000000E+002   9.96118257E-001   7.12079415E-001   9.96107437E-001
   2.45000000E+002   9.96620048E-001   7.12079902E-001   9.96610275E-001
