# ./jetvheto -in n3lo-fixed-order/H125-LHC13-R04-mb-0-mt-1725-xmur100-xmuf100-log.fxd -xQ 0.25 -out benchmarks-n3lo-smallR/H125-LHC13-R04-mb-0-mt-1725-xmur100-xmuf100-xQ025-N3LO+NNLLb.res -scheme b -order 2 -ptmax 500.01 -fixed_order 3 -loop-mass t
# process = H    
# collider = pp   
# rts =  13000.000
# M   =    125.000
# muR =    125.000
# muF =    125.000
# Q   =     31.250
# p   =      5.000
# include_c1_squared =   F
# loop_mass  = t   
# alphas(MZ) =    0.11800
# alphas(M) =    0.11264
# alphas(muR) =    0.11264
# Rjet =      0.400
# order = NNLL
# pdf name and set = PDF4LHC15_nnlo_mc.LHgrid,    0
# matching scheme = b
# total cross sections [nb] at LO, NLOdiff, NNLOdiff, N3LOdiff =     0.013801    0.017514    0.010146    0.003834
#----------------------------------------------------------------------
# the lines that follow give the jet-veto efficiencies as a function of pt
#         pt            matched eff      resummed eff     fixed-order eff
   2.00000000E+001   4.38242515E-001   5.42311942E-001   4.21593782E-001
   2.50000000E+001   5.22460423E-001   6.15661587E-001   5.13960990E-001
   3.00000000E+001   5.94960821E-001   6.58800907E-001   5.91015610E-001
   3.50000000E+001   6.52553682E-001   6.82274363E-001   6.50645918E-001
   4.00000000E+001   6.99791815E-001   6.94603427E-001   6.98836983E-001
   4.50000000E+001   7.38431650E-001   7.01118668E-001   7.37928057E-001
   5.00000000E+001   7.71305224E-001   7.04667433E-001   7.71030473E-001
   5.50000000E+001   7.99430581E-001   7.06678092E-001   7.99275639E-001
   6.00000000E+001   8.23151513E-001   7.07864207E-001   8.23059681E-001
   6.50000000E+001   8.44298734E-001   7.08590911E-001   8.44243758E-001
   7.00000000E+001   8.62105261E-001   7.09051665E-001   8.62070819E-001
   7.50000000E+001   8.76948330E-001   7.09352867E-001   8.76925464E-001
   8.00000000E+001   8.89982696E-001   7.09555190E-001   8.89967148E-001
   8.50000000E+001   9.01739120E-001   7.09694418E-001   9.01728487E-001
   9.00000000E+001   9.11755325E-001   7.09792312E-001   9.11747759E-001
   9.50000000E+001   9.20915002E-001   7.09862486E-001   9.20909613E-001
   1.00000000E+002   9.28583550E-001   7.09913667E-001   9.28579537E-001
   1.05000000E+002   9.35457653E-001   7.09951587E-001   9.35454626E-001
   1.10000000E+002   9.41630970E-001   7.09980082E-001   9.41628668E-001
   1.15000000E+002   9.47178912E-001   7.10001775E-001   9.47177133E-001
   1.20000000E+002   9.51998288E-001   7.10018485E-001   9.51996886E-001
   1.25000000E+002   9.56175064E-001   7.10031498E-001   9.56173934E-001
   1.30000000E+002   9.60357199E-001   7.10041733E-001   9.60356305E-001
   1.35000000E+002   9.64009161E-001   7.10049858E-001   9.64008440E-001
   1.40000000E+002   9.67092590E-001   7.10056363E-001   9.67091995E-001
   1.45000000E+002   9.70035390E-001   7.10061613E-001   9.70034899E-001
   1.50000000E+002   9.72527908E-001   7.10065881E-001   9.72527497E-001
   1.55000000E+002   9.75212793E-001   7.10069375E-001   9.75212455E-001
   1.60000000E+002   9.77041399E-001   7.10072255E-001   9.77041107E-001
   1.65000000E+002   9.78998299E-001   7.10074641E-001   9.78998050E-001
   1.70000000E+002   9.80709810E-001   7.10076631E-001   9.80709596E-001
   1.75000000E+002   9.82370806E-001   7.10078299E-001   9.82370623E-001
   1.80000000E+002   9.83895355E-001   7.10079703E-001   9.83895197E-001
   1.85000000E+002   9.85264659E-001   7.10080893E-001   9.85264523E-001
   1.90000000E+002   9.86225587E-001   7.10081904E-001   9.86225466E-001
   1.95000000E+002   9.87456601E-001   7.10082767E-001   9.87456496E-001
   2.00000000E+002   9.88501198E-001   7.10083507E-001   9.88501106E-001
   2.05000000E+002   9.89400047E-001   7.10084144E-001   9.89399966E-001
   2.10000000E+002   9.90204188E-001   7.10084694E-001   9.90204115E-001
   2.15000000E+002   9.91095783E-001   7.10085171E-001   9.91095719E-001
   2.20000000E+002   9.91741863E-001   7.10085586E-001   9.91741805E-001
   2.25000000E+002   9.92422361E-001   7.10085948E-001   9.92422310E-001
   2.30000000E+002   9.93056647E-001   7.10086265E-001   9.93056602E-001
   2.35000000E+002   9.93643543E-001   7.10086543E-001   9.93643503E-001
   2.40000000E+002   9.94041803E-001   7.10086788E-001   9.94041766E-001
   2.45000000E+002   9.94575427E-001   7.10087004E-001   9.94575393E-001
