# ./jetvheto -in n3lo-fixed-order/H125-LHC13-R04-mb-475-mt-1725-xmur050-xmuf100-log.fxd -xQ 0.25 -out benchmarks-n3lo-smallR/H125-LHC13-R04-mb-475-mt-1725-xmur050-xmuf100-xQ025-N3LO+NNLLb.res -scheme b -order 2 -ptmax 500.01 -fixed_order 3 -loop-mass t+b
# process = H    
# collider = pp   
# rts =  13000.000
# M   =    125.000
# muR =     62.500
# muF =    125.000
# Q   =     31.250
# p   =      5.000
# include_c1_squared =   F
# loop_mass  = t+b 
# alphas(MZ) =    0.11800
# alphas(M) =    0.11264
# alphas(muR) =    0.12516
# Rjet =      0.400
# order = NNLL
# pdf name and set = PDF4LHC15_nnlo_mc.LHgrid,    0
# matching scheme = b
# total cross sections [nb] at LO, NLOdiff, NNLOdiff, N3LOdiff =     0.015023    0.020252    0.008553    0.000949
#----------------------------------------------------------------------
# the lines that follow give the jet-veto efficiencies as a function of pt
#         pt            matched eff      resummed eff     fixed-order eff
   2.00000000E+001   4.27419654E-001   4.80120807E-001   4.22022001E-001
   2.50000000E+001   5.13442969E-001   5.45882462E-001   5.10305136E-001
   3.00000000E+001   5.89636151E-001   5.84567589E-001   5.88327259E-001
   3.50000000E+001   6.48871439E-001   6.05620025E-001   6.48206817E-001
   4.00000000E+001   6.96933409E-001   6.16678366E-001   6.96568548E-001
   4.50000000E+001   7.36020178E-001   6.22522384E-001   7.35802106E-001
   5.00000000E+001   7.69516510E-001   6.25705635E-001   7.69386078E-001
   5.50000000E+001   7.98392306E-001   6.27509230E-001   7.98313706E-001
   6.00000000E+001   8.22598613E-001   6.28573207E-001   8.22547640E-001
   6.50000000E+001   8.44651428E-001   6.29225084E-001   8.44619571E-001
   7.00000000E+001   8.63080095E-001   6.29638396E-001   8.63058779E-001
   7.50000000E+001   8.77936757E-001   6.29908586E-001   8.77921035E-001
   8.00000000E+001   8.91065208E-001   6.30090077E-001   8.91053486E-001
   8.50000000E+001   9.03135035E-001   6.30214970E-001   9.03126493E-001
   9.00000000E+001   9.13251843E-001   6.30302785E-001   9.13245267E-001
   9.50000000E+001   9.22706968E-001   6.30365734E-001   9.22702012E-001
   1.00000000E+002   9.30322833E-001   6.30411646E-001   9.30318877E-001
   1.05000000E+002   9.37206083E-001   6.30445661E-001   9.37202914E-001
   1.10000000E+002   9.43443014E-001   6.30471223E-001   9.43440479E-001
   1.15000000E+002   9.49018125E-001   6.30490682E-001   9.49016071E-001
   1.20000000E+002   9.53756331E-001   6.30505671E-001   9.53754638E-001
   1.25000000E+002   9.57796676E-001   6.30517344E-001   9.57795252E-001
   1.30000000E+002   9.62078826E-001   6.30526526E-001   9.62077662E-001
   1.35000000E+002   9.65783452E-001   6.30533814E-001   9.65782485E-001
   1.40000000E+002   9.68763768E-001   6.30539650E-001   9.68762947E-001
   1.45000000E+002   9.71688334E-001   6.30544359E-001   9.71687638E-001
   1.50000000E+002   9.74089634E-001   6.30548188E-001   9.74089037E-001
   1.55000000E+002   9.76919283E-001   6.30551322E-001   9.76918783E-001
   1.60000000E+002   9.78485753E-001   6.30553905E-001   9.78485312E-001
   1.65000000E+002   9.80405692E-001   6.30556046E-001   9.80405311E-001
   1.70000000E+002   9.82027019E-001   6.30557831E-001   9.82026686E-001
   1.75000000E+002   9.83689559E-001   6.30559327E-001   9.83689270E-001
   1.80000000E+002   9.85195117E-001   6.30560587E-001   9.85194866E-001
   1.85000000E+002   9.86548568E-001   6.30561654E-001   9.86548347E-001
   1.90000000E+002   9.87302233E-001   6.30562561E-001   9.87302036E-001
   1.95000000E+002   9.88556440E-001   6.30563335E-001   9.88556267E-001
   2.00000000E+002   9.89579903E-001   6.30563999E-001   9.89579750E-001
   2.05000000E+002   9.90408096E-001   6.30564571E-001   9.90407959E-001
   2.10000000E+002   9.91151559E-001   6.30565064E-001   9.91151437E-001
   2.15000000E+002   9.92075311E-001   6.30565492E-001   9.92075203E-001
   2.20000000E+002   9.92639398E-001   6.30565864E-001   9.92639301E-001
   2.25000000E+002   9.93299247E-001   6.30566189E-001   9.93299159E-001
   2.30000000E+002   9.93914625E-001   6.30566473E-001   9.93914547E-001
   2.35000000E+002   9.94476650E-001   6.30566723E-001   9.94476580E-001
   2.40000000E+002   9.94777099E-001   6.30566942E-001   9.94777034E-001
   2.45000000E+002   9.95317430E-001   6.30567136E-001   9.95317372E-001
