# ./jetvheto -in n3lo-fixed-order/H125-LHC13-R04-mb-475-mt-1725-xmur100-xmuf100-log.fxd -xQ 0.25 -out benchmarks-n3lo-smallR/H125-LHC13-R04-mb-475-mt-1725-xmur100-xmuf100-xQ025-NNLO+NNLLb.res -scheme b -order 2 -ptmax 500.01 -fixed_order 2 -loop-mass t+b
# process = H    
# collider = pp   
# rts =  13000.000
# M   =    125.000
# muR =    125.000
# muF =    125.000
# Q   =     31.250
# p   =      5.000
# include_c1_squared =   F
# loop_mass  = t+b 
# alphas(MZ) =    0.11800
# alphas(M) =    0.11264
# alphas(muR) =    0.11264
# Rjet =      0.400
# order = NNLL
# pdf name and set = PDF4LHC15_nnlo_mc.LHgrid,    0
# matching scheme = b
# total cross sections [nb] at LO, NLOdiff, NNLOdiff, N3LOdiff =     0.012292    0.016994    0.010146    0.003834
#----------------------------------------------------------------------
# the lines that follow give the jet-veto efficiencies as a function of pt
#         pt            matched eff      resummed eff     fixed-order eff
   2.00000000E+001   3.71472703E-001   5.20360737E-001   3.17550639E-001
   2.50000000E+001   4.55098102E-001   5.90697112E-001   4.27790656E-001
   3.00000000E+001   5.26482346E-001   6.32059570E-001   5.12989288E-001
   3.50000000E+001   5.87644451E-001   6.54564396E-001   5.80985186E-001
   4.00000000E+001   6.39552815E-001   6.66384107E-001   6.36189278E-001
   4.50000000E+001   6.83618809E-001   6.72629997E-001   6.81851830E-001
   5.00000000E+001   7.21116857E-001   6.76031993E-001   7.20147070E-001
   5.50000000E+001   7.53034895E-001   6.77959477E-001   7.52478916E-001
   6.00000000E+001   7.80586954E-001   6.79096519E-001   7.80255597E-001
   6.50000000E+001   8.04408949E-001   6.79793155E-001   8.04204225E-001
   7.00000000E+001   8.25045428E-001   6.80234844E-001   8.24914709E-001
   7.50000000E+001   8.43028235E-001   6.80523582E-001   8.42942328E-001
   8.00000000E+001   8.58882813E-001   6.80717533E-001   8.58824881E-001
   8.50000000E+001   8.72728132E-001   6.80850999E-001   8.72688093E-001
   9.00000000E+001   8.85082682E-001   6.80944843E-001   8.85054448E-001
   9.50000000E+001   8.95951278E-001   6.81012112E-001   8.95930965E-001
   1.00000000E+002   9.05619359E-001   6.81061176E-001   9.05604482E-001
   1.05000000E+002   9.14283793E-001   6.81097526E-001   9.14272722E-001
   1.10000000E+002   9.21925375E-001   6.81124842E-001   9.21917006E-001
   1.15000000E+002   9.28854342E-001   6.81145637E-001   9.28847935E-001
   1.20000000E+002   9.34984355E-001   6.81161656E-001   9.34979383E-001
   1.25000000E+002   9.40595183E-001   6.81174130E-001   9.40591281E-001
   1.30000000E+002   9.45634294E-001   6.81183942E-001   9.45631198E-001
   1.35000000E+002   9.50212996E-001   6.81191730E-001   9.50210516E-001
   1.40000000E+002   9.54315084E-001   6.81197966E-001   9.54313076E-001
   1.45000000E+002   9.58109247E-001   6.81202999E-001   9.58107610E-001
   1.50000000E+002   9.61491690E-001   6.81207091E-001   9.61490343E-001
   1.55000000E+002   9.64618940E-001   6.81210440E-001   9.64617823E-001
   1.60000000E+002   9.67447191E-001   6.81213200E-001   9.67446259E-001
   1.65000000E+002   9.70030379E-001   6.81215488E-001   9.70029596E-001
   1.70000000E+002   9.72399740E-001   6.81217396E-001   9.72399079E-001
   1.75000000E+002   9.74538973E-001   6.81218994E-001   9.74538410E-001
   1.80000000E+002   9.76507951E-001   6.81220341E-001   9.76507469E-001
   1.85000000E+002   9.78305738E-001   6.81221481E-001   9.78305324E-001
   1.90000000E+002   9.79960397E-001   6.81222450E-001   9.79960040E-001
   1.95000000E+002   9.81504391E-001   6.81223278E-001   9.81504081E-001
   2.00000000E+002   9.82901565E-001   6.81223987E-001   9.82901295E-001
   2.05000000E+002   9.84199680E-001   6.81224598E-001   9.84199444E-001
   2.10000000E+002   9.85383901E-001   6.81225125E-001   9.85383694E-001
   2.15000000E+002   9.86450938E-001   6.81225583E-001   9.86450755E-001
   2.20000000E+002   9.87457832E-001   6.81225980E-001   9.87457670E-001
   2.25000000E+002   9.88378584E-001   6.81226327E-001   9.88378441E-001
   2.30000000E+002   9.89227556E-001   6.81226631E-001   9.89227429E-001
   2.35000000E+002   9.90021742E-001   6.81226898E-001   9.90021629E-001
   2.40000000E+002   9.90734863E-001   6.81227132E-001   9.90734762E-001
   2.45000000E+002   9.91411126E-001   6.81227339E-001   9.91411035E-001
