# ./jetvheto -in n3lo-fixed-order/H125-LHC13-R04-mb-0-mt-1725-xmur100-xmuf050-log.fxd -xQ 0.5 -out benchmarks-n3lo-smallR/H125-LHC13-R04-mb-0-mt-1725-xmur100-xmuf050-xQ050-N3LO+NNLLa.R0-0.5.res -scheme a -order 2 -ptmax 500.01 -small-r -fixed_order 3 -loop-mass t -R0 0.5
# process = H    
# collider = pp   
# rts =  13000.000
# M   =    125.000
# muR =    125.000
# muF =     62.500
# Q   =     62.500
# p   =      5.000
# include_c1_squared =   F
# loop_mass  = t   
# alphas(MZ) =    0.11800
# alphas(M) =    0.11264
# alphas(muR) =    0.11264
# Rjet =      0.400
# order = NNLL
# pdf name and set = PDF4LHC15_nnlo_mc.LHgrid,    0
# matching scheme = a
# total cross sections [nb] at LO, NLOdiff, NNLOdiff, N3LOdiff =     0.012997    0.017347    0.010424    0.004163
#----------------------------------------------------------------------
# the lines that follow give the jet-veto efficiencies as a function of pt
#         pt            matched eff      resummed eff     fixed-order eff
   2.00000000E+001   4.57016849E-001   5.05160942E-001   4.69526017E-001
   2.50000000E+001   5.46145146E-001   5.90826688E-001   5.54239195E-001
   3.00000000E+001   6.18879682E-001   6.52373188E-001   6.23657046E-001
   3.50000000E+001   6.76749628E-001   6.96049941E-001   6.78794579E-001
   4.00000000E+001   7.22203344E-001   7.26525276E-001   7.22284509E-001
   4.50000000E+001   7.60416576E-001   7.47298512E-001   7.59442749E-001
   5.00000000E+001   7.91402326E-001   7.61076387E-001   7.89911987E-001
   5.50000000E+001   8.17405936E-001   7.69970864E-001   8.15803473E-001
   6.00000000E+001   8.38993675E-001   7.75590020E-001   8.37483214E-001
   6.50000000E+001   8.58310079E-001   7.79095207E-001   8.56997603E-001
   7.00000000E+001   8.73834844E-001   7.81278666E-001   8.72735442E-001
   7.50000000E+001   8.87513059E-001   7.82651543E-001   8.86617786E-001
   8.00000000E+001   8.99731012E-001   7.83530028E-001   8.99012317E-001
   8.50000000E+001   9.10553610E-001   7.84104871E-001   9.09980195E-001
   9.00000000E+001   9.20107089E-001   7.84490478E-001   9.19650032E-001
   9.50000000E+001   9.28034411E-001   7.84755650E-001   9.27669005E-001
   1.00000000E+002   9.35436129E-001   7.84942340E-001   9.35142966E-001
   1.05000000E+002   9.41547694E-001   7.85076647E-001   9.41311142E-001
   1.10000000E+002   9.47109705E-001   7.85175170E-001   9.46917758E-001
   1.15000000E+002   9.52272206E-001   7.85248715E-001   9.52115563E-001
   1.20000000E+002   9.56926516E-001   7.85304475E-001   9.56797888E-001
   1.25000000E+002   9.60943199E-001   7.85347341E-001   9.60836881E-001
   1.30000000E+002   9.64446685E-001   7.85380708E-001   9.64358296E-001
   1.35000000E+002   9.67796962E-001   7.85406972E-001   9.67723078E-001
   1.40000000E+002   9.70855350E-001   7.85427855E-001   9.70793249E-001
   1.45000000E+002   9.73566731E-001   7.85444614E-001   9.73514254E-001
   1.50000000E+002   9.75830635E-001   7.85458176E-001   9.75786047E-001
   1.55000000E+002   9.78166971E-001   7.85469236E-001   9.78128929E-001
   1.60000000E+002   9.80273157E-001   7.85478320E-001   9.80240550E-001
   1.65000000E+002   9.81805605E-001   7.85485831E-001   9.81777518E-001
   1.70000000E+002   9.83509561E-001   7.85492078E-001   9.83485281E-001
   1.75000000E+002   9.85070592E-001   7.85497305E-001   9.85049521E-001
   1.80000000E+002   9.86352047E-001   7.85501701E-001   9.86333689E-001
   1.85000000E+002   9.87534314E-001   7.85505417E-001   9.87518263E-001
   1.90000000E+002   9.88688675E-001   7.85508573E-001   9.88674596E-001
   1.95000000E+002   9.89750898E-001   7.85511265E-001   9.89738508E-001
   2.00000000E+002   9.90704090E-001   7.85513571E-001   9.90693154E-001
   2.05000000E+002   9.91506109E-001   7.85515555E-001   9.91496426E-001
   2.10000000E+002   9.92273735E-001   7.85517267E-001   9.92265138E-001
   2.15000000E+002   9.92924806E-001   7.85518751E-001   9.92917151E-001
   2.20000000E+002   9.93695582E-001   7.85520040E-001   9.93688751E-001
   2.25000000E+002   9.94201633E-001   7.85521165E-001   9.94195521E-001
   2.30000000E+002   9.94759450E-001   7.85522149E-001   9.94753968E-001
   2.35000000E+002   9.95199974E-001   7.85523012E-001   9.95195046E-001
   2.40000000E+002   9.95649690E-001   7.85523772E-001   9.95645251E-001
   2.45000000E+002   9.96124476E-001   7.85524442E-001   9.96120469E-001
