# ./jetvheto -in n3lo-fixed-order/H125-LHC13-R04-mb-475-mt-1725-xmur025-xmuf050-log.fxd -xQ 0.25 -out benchmarks-n3lo-smallR/H125-LHC13-R04-mb-475-mt-1725-xmur025-xmuf050-xQ025-N3LO+NNLLa.R0-1.0.res -scheme a -order 2 -ptmax 500.01 -fixed_order 3 -small-r -loop-mass t+b -R0 1.0
# process = H    
# collider = pp   
# rts =  13000.000
# M   =    125.000
# muR =     31.250
# muF =     62.500
# Q   =     31.250
# p   =      5.000
# include_c1_squared =   F
# loop_mass  = t+b 
# alphas(MZ) =    0.11800
# alphas(M) =    0.11264
# alphas(muR) =    0.14091
# Rjet =      0.400
# order = NNLL
# pdf name and set = PDF4LHC15_nnlo_mc.LHgrid,    0
# matching scheme = a
# total cross sections [nb] at LO, NLOdiff, NNLOdiff, N3LOdiff =     0.017683    0.024805    0.005009   -0.002663
#----------------------------------------------------------------------
# the lines that follow give the jet-veto efficiencies as a function of pt
#         pt            matched eff      resummed eff     fixed-order eff
   2.00000000E+001   4.44924324E-001   4.25085904E-001   4.46607809E-001
   2.50000000E+001   5.29736660E-001   4.83694845E-001   5.29091423E-001
   3.00000000E+001   6.05528904E-001   5.18310189E-001   6.04995778E-001
   3.50000000E+001   6.65617324E-001   5.37208930E-001   6.65141973E-001
   4.00000000E+001   7.10666054E-001   5.47156705E-001   7.10209715E-001
   4.50000000E+001   7.51988132E-001   5.52420095E-001   7.51667982E-001
   5.00000000E+001   7.84098175E-001   5.55289069E-001   7.83854807E-001
   5.50000000E+001   8.12663583E-001   5.56915253E-001   8.12489362E-001
   6.00000000E+001   8.35521464E-001   5.57874799E-001   8.35391522E-001
   6.50000000E+001   8.57732848E-001   5.58462777E-001   8.57640710E-001
   7.00000000E+001   8.73543226E-001   5.58835609E-001   8.73471931E-001
   7.50000000E+001   8.88081529E-001   5.59079350E-001   8.88027309E-001
   8.00000000E+001   9.01498369E-001   5.59243082E-001   9.01457188E-001
   8.50000000E+001   9.13494640E-001   5.59355756E-001   9.13463104E-001
   9.00000000E+001   9.24030918E-001   5.59434982E-001   9.24006495E-001
   9.50000000E+001   9.31911352E-001   5.59491774E-001   9.31891873E-001
   1.00000000E+002   9.39774828E-001   5.59533196E-001   9.39759362E-001
   1.05000000E+002   9.45613975E-001   5.59563885E-001   9.45601410E-001
   1.10000000E+002   9.51067032E-001   5.59586948E-001   9.51056796E-001
   1.15000000E+002   9.56488125E-001   5.59604504E-001   9.56479795E-001
   1.20000000E+002   9.61350355E-001   5.59618028E-001   9.61343529E-001
   1.25000000E+002   9.65110235E-001   5.59628560E-001   9.65104556E-001
   1.30000000E+002   9.68314330E-001   5.59636843E-001   9.68309576E-001
   1.35000000E+002   9.71779208E-001   5.59643419E-001   9.71775236E-001
   1.40000000E+002   9.74935605E-001   5.59648684E-001   9.74932267E-001
   1.45000000E+002   9.77562469E-001   5.59652933E-001   9.77559644E-001
   1.50000000E+002   9.79294915E-001   5.59656388E-001   9.79292492E-001
   1.55000000E+002   9.81792454E-001   5.59659216E-001   9.81790391E-001
   1.60000000E+002   9.84001307E-001   5.59661546E-001   9.83999542E-001
   1.65000000E+002   9.84857001E-001   5.59663478E-001   9.84855464E-001
   1.70000000E+002   9.86529817E-001   5.59665088E-001   9.86528488E-001
   1.75000000E+002   9.88127003E-001   5.59666438E-001   9.88125850E-001
   1.80000000E+002   9.89168312E-001   5.59667575E-001   9.89167305E-001
   1.85000000E+002   9.90121796E-001   5.59668537E-001   9.90120912E-001
   1.90000000E+002   9.91214300E-001   5.59669355E-001   9.91213525E-001
   1.95000000E+002   9.92235342E-001   5.59670054E-001   9.92234660E-001
   2.00000000E+002   9.93106747E-001   5.59670653E-001   9.93106144E-001
   2.05000000E+002   9.93692729E-001   5.59671169E-001   9.93692194E-001
   2.10000000E+002   9.94364283E-001   5.59671614E-001   9.94363808E-001
   2.15000000E+002   9.94771721E-001   5.59672000E-001   9.94771297E-001
   2.20000000E+002   9.95686956E-001   5.59672336E-001   9.95686578E-001
   2.25000000E+002   9.95943140E-001   5.59672629E-001   9.95942802E-001
   2.30000000E+002   9.96379718E-001   5.59672885E-001   9.96379414E-001
   2.35000000E+002   9.96640714E-001   5.59673110E-001   9.96640440E-001
   2.40000000E+002   9.96984268E-001   5.59673308E-001   9.96984021E-001
   2.45000000E+002   9.97486413E-001   5.59673483E-001   9.97486190E-001
