# ./jetvheto -in n3lo-fixed-order/H125-LHC13-R04-mb-0-mt-1725-xmur200-xmuf100-log.fxd -xQ 0.25 -out benchmarks-n3lo-smallR/H125-LHC13-R04-mb-0-mt-1725-xmur200-xmuf100-xQ025-N3LO+NNLLa.res -scheme a -order 2 -ptmax 500.01 -fixed_order 3 -loop-mass t
# process = H    
# collider = pp   
# rts =  13000.000
# M   =    125.000
# muR =    250.000
# muF =    125.000
# Q   =     31.250
# p   =      5.000
# include_c1_squared =   F
# loop_mass  = t   
# alphas(MZ) =    0.11800
# alphas(M) =    0.11264
# alphas(muR) =    0.10244
# Rjet =      0.400
# order = NNLL
# pdf name and set = PDF4LHC15_nnlo_mc.LHgrid,    0
# matching scheme = a
# total cross sections [nb] at LO, NLOdiff, NNLOdiff, N3LOdiff =     0.011501    0.015066    0.010526    0.005600
#----------------------------------------------------------------------
# the lines that follow give the jet-veto efficiencies as a function of pt
#         pt            matched eff      resummed eff     fixed-order eff
   2.00000000E+001   4.81353311E-001   5.74791142E-001   4.90754923E-001
   2.50000000E+001   5.66747351E-001   6.50835035E-001   5.73235191E-001
   3.00000000E+001   6.35886880E-001   6.95505581E-001   6.40126678E-001
   3.50000000E+001   6.89611877E-001   7.19795410E-001   6.92213126E-001
   4.00000000E+001   7.32715158E-001   7.32548174E-001   7.34315482E-001
   4.50000000E+001   7.67566466E-001   7.39285807E-001   7.68570187E-001
   5.00000000E+001   7.96802937E-001   7.42955246E-001   7.97452991E-001
   5.50000000E+001   8.21566456E-001   7.45034128E-001   8.22000414E-001
   6.00000000E+001   8.42466604E-001   7.46260437E-001   8.42763416E-001
   6.50000000E+001   8.60849274E-001   7.47011749E-001   8.61058104E-001
   7.00000000E+001   8.76406287E-001   7.47488097E-001   8.76555984E-001
   7.50000000E+001   8.89566694E-001   7.47799490E-001   8.89675686E-001
   8.00000000E+001   9.01105546E-001   7.48008657E-001   9.01186361E-001
   8.50000000E+001   9.11405538E-001   7.48152594E-001   9.11466536E-001
   9.00000000E+001   9.20281705E-001   7.48253799E-001   9.20328326E-001
   9.50000000E+001   9.28302264E-001   7.48326346E-001   9.28338424E-001
   1.00000000E+002   9.35154044E-001   7.48379258E-001   9.35182357E-001
   1.05000000E+002   9.41284625E-001   7.48418460E-001   9.41307045E-001
   1.10000000E+002   9.46761831E-001   7.48447919E-001   9.46779771E-001
   1.15000000E+002   9.51698882E-001   7.48470345E-001   9.51713368E-001
   1.20000000E+002   9.56025723E-001   7.48487620E-001   9.56037512E-001
   1.25000000E+002   9.59828431E-001   7.48501073E-001   9.59838094E-001
   1.30000000E+002   9.63513524E-001   7.48511654E-001   9.63521519E-001
   1.35000000E+002   9.66761012E-001   7.48520054E-001   9.66767667E-001
   1.40000000E+002   9.69568646E-001   7.48526779E-001   9.69574216E-001
   1.45000000E+002   9.72212815E-001   7.48532206E-001   9.72217507E-001
   1.50000000E+002   9.74494046E-001   7.48536619E-001   9.74498018E-001
   1.55000000E+002   9.76833402E-001   7.48540231E-001   9.76836788E-001
   1.60000000E+002   9.78592588E-001   7.48543208E-001   9.78595480E-001
   1.65000000E+002   9.80368126E-001   7.48545675E-001   9.80370612E-001
   1.70000000E+002   9.81946894E-001   7.48547732E-001   9.81949039E-001
   1.75000000E+002   9.83440990E-001   7.48549456E-001   9.83442850E-001
   1.80000000E+002   9.84816939E-001   7.48550909E-001   9.84818558E-001
   1.85000000E+002   9.86057536E-001   7.48552138E-001   9.86058950E-001
   1.90000000E+002   9.87020883E-001   7.48553183E-001   9.87022120E-001
   1.95000000E+002   9.88118073E-001   7.48554076E-001   9.88119161E-001
   2.00000000E+002   9.89070111E-001   7.48554841E-001   9.89071072E-001
   2.05000000E+002   9.89912705E-001   7.48555499E-001   9.89913555E-001
   2.10000000E+002   9.90669578E-001   7.48556068E-001   9.90670331E-001
   2.15000000E+002   9.91456210E-001   7.48556561E-001   9.91456881E-001
   2.20000000E+002   9.92078657E-001   7.48556990E-001   9.92079255E-001
   2.25000000E+002   9.92702406E-001   7.48557364E-001   9.92702941E-001
   2.30000000E+002   9.93282607E-001   7.48557692E-001   9.93283087E-001
   2.35000000E+002   9.93821605E-001   7.48557979E-001   9.93822036E-001
   2.40000000E+002   9.94228301E-001   7.48558232E-001   9.94228689E-001
   2.45000000E+002   9.94706665E-001   7.48558456E-001   9.94707015E-001
