# ./jetvheto -in n3lo-fixed-order/H125-LHC13-R04-mb-0-mt-1725-xmur100-xmuf100-log.fxd -xQ 0.5 -out benchmarks-n3lo-smallR/H125-LHC13-R04-mb-0-mt-1725-xmur100-xmuf100-xQ050-N3LO+NNLLb.R0-1.5.res -scheme b -order 2 -ptmax 500.01 -small-r -fixed_order 3 -loop-mass t -R0 1.5
# process = H    
# collider = pp   
# rts =  13000.000
# M   =    125.000
# muR =    125.000
# muF =    125.000
# Q   =     62.500
# p   =      5.000
# include_c1_squared =   F
# loop_mass  = t   
# alphas(MZ) =    0.11800
# alphas(M) =    0.11264
# alphas(muR) =    0.11264
# Rjet =      0.400
# order = NNLL
# pdf name and set = PDF4LHC15_nnlo_mc.LHgrid,    0
# matching scheme = b
# total cross sections [nb] at LO, NLOdiff, NNLOdiff, N3LOdiff =     0.013801    0.017514    0.010146    0.003834
#----------------------------------------------------------------------
# the lines that follow give the jet-veto efficiencies as a function of pt
#         pt            matched eff      resummed eff     fixed-order eff
   2.00000000E+001   4.52674209E-001   5.28985432E-001   4.21593782E-001
   2.50000000E+001   5.36499453E-001   6.10579186E-001   5.13960990E-001
   3.00000000E+001   6.07351325E-001   6.68294253E-001   5.91015610E-001
   3.50000000E+001   6.63131567E-001   7.08622580E-001   6.50645918E-001
   4.00000000E+001   7.08542561E-001   7.36271333E-001   6.98836983E-001
   4.50000000E+001   7.45510526E-001   7.54737356E-001   7.37928057E-001
   5.00000000E+001   7.76923582E-001   7.66686517E-001   7.71030473E-001
   5.50000000E+001   8.03827571E-001   7.74165481E-001   7.99275639E-001
   6.00000000E+001   8.26562815E-001   7.78710974E-001   8.23059681E-001
   6.50000000E+001   8.46929039E-001   7.81417508E-001   8.44243758E-001
   7.00000000E+001   8.64129243E-001   7.83014819E-001   8.62070819E-001
   7.50000000E+001   8.78507310E-001   7.83960566E-001   8.76925464E-001
   8.00000000E+001   8.91187912E-001   7.84528314E-001   8.89967148E-001
   8.50000000E+001   9.02675876E-001   7.84876509E-001   9.01728487E-001
   9.00000000E+001   9.12488419E-001   7.85095745E-001   9.11747759E-001
   9.50000000E+001   9.21493009E-001   7.85237782E-001   9.20909613E-001
   1.00000000E+002   9.29042673E-001   7.85332494E-001   9.28579537E-001
   1.05000000E+002   9.35825222E-001   7.85397421E-001   9.35454626E-001
   1.10000000E+002   9.41927492E-001   7.85443093E-001   9.41628668E-001
   1.15000000E+002   9.47419933E-001   7.85475982E-001   9.47177133E-001
   1.20000000E+002   9.52195560E-001   7.85500169E-001   9.51996886E-001
   1.25000000E+002   9.56337628E-001   7.85518294E-001   9.56173934E-001
   1.30000000E+002   9.60492074E-001   7.85532103E-001   9.60356305E-001
   1.35000000E+002   9.64121749E-001   7.85542781E-001   9.64008440E-001
   1.40000000E+002   9.67187091E-001   7.85551145E-001   9.67091995E-001
   1.45000000E+002   9.70115174E-001   7.85557776E-001   9.70034899E-001
   1.50000000E+002   9.72595599E-001   7.85563086E-001   9.72527497E-001
   1.55000000E+002   9.75270528E-001   7.85567379E-001   9.75212455E-001
   1.60000000E+002   9.77090853E-001   7.85570880E-001   9.77041107E-001
   1.65000000E+002   9.79040854E-001   7.85573757E-001   9.78998050E-001
   1.70000000E+002   9.80746584E-001   7.85576138E-001   9.80709596E-001
   1.75000000E+002   9.82402711E-001   7.85578121E-001   9.82370623E-001
   1.80000000E+002   9.83923141E-001   7.85579783E-001   9.83895197E-001
   1.85000000E+002   9.85288944E-001   7.85581184E-001   9.85264523E-001
   1.90000000E+002   9.86246882E-001   7.85582370E-001   9.86225466E-001
   1.95000000E+002   9.87475340E-001   7.85583379E-001   9.87456496E-001
   2.00000000E+002   9.88517737E-001   7.85584242E-001   9.88501106E-001
   2.05000000E+002   9.89414688E-001   7.85584984E-001   9.89399966E-001
   2.10000000E+002   9.90217184E-001   7.85585622E-001   9.90204115E-001
   2.15000000E+002   9.91107352E-001   7.85586175E-001   9.91095719E-001
   2.20000000E+002   9.91752187E-001   7.85586655E-001   9.91741805E-001
   2.25000000E+002   9.92431598E-001   7.85587073E-001   9.92422310E-001
   2.30000000E+002   9.93064931E-001   7.85587439E-001   9.93056602E-001
   2.35000000E+002   9.93650989E-001   7.85587759E-001   9.93643503E-001
   2.40000000E+002   9.94048509E-001   7.85588041E-001   9.94041766E-001
   2.45000000E+002   9.94581481E-001   7.85588290E-001   9.94575393E-001
