# ./jetvheto -in n3lo-fixed-order/H125-LHC13-R04-mb-0-mt-1725-xmur100-xmuf100-log.fxd -xQ 0.0625 -out benchmarks-n3lo-smallR/H125-LHC13-R04-mb-0-mt-1725-xmur100-xmuf100-xQ0625-NNLO+NNLLa.R0-2.0.res -scheme a -order 2 -ptmax 500.01 -small-r -fixed_order 2 -loop-mass t -R0 2.0
# process = H    
# collider = pp   
# rts =  13000.000
# M   =    125.000
# muR =    125.000
# muF =    125.000
# Q   =      7.812
# p   =      5.000
# include_c1_squared =   F
# loop_mass  = t   
# alphas(MZ) =    0.11800
# alphas(M) =    0.11264
# alphas(muR) =    0.11264
# Rjet =      0.400
# order = NNLL
# pdf name and set = PDF4LHC15_nnlo_mc.LHgrid,    0
# matching scheme = a
# total cross sections [nb] at LO, NLOdiff, NNLOdiff, N3LOdiff =     0.013801    0.017514    0.010146    0.003834
#----------------------------------------------------------------------
# the lines that follow give the jet-veto efficiencies as a function of pt
#         pt            matched eff      resummed eff     fixed-order eff
   2.00000000E+001   5.11967377E-001   2.85003598E-001   5.12111256E-001
   2.50000000E+001   5.93036764E-001   2.85519557E-001   5.93117916E-001
   3.00000000E+001   6.55140464E-001   2.85670651E-001   6.55183932E-001
   3.50000000E+001   7.04288500E-001   2.85725277E-001   7.04312652E-001
   4.00000000E+001   7.44098118E-001   2.85748199E-001   7.44112204E-001
   4.50000000E+001   7.76732564E-001   2.85758945E-001   7.76741158E-001
   5.00000000E+001   8.03994265E-001   2.85764432E-001   8.03999724E-001
   5.50000000E+001   8.26952896E-001   2.85767431E-001   8.26956486E-001
   6.00000000E+001   8.46579984E-001   2.85769164E-001   8.46582419E-001
   6.50000000E+001   8.63447928E-001   2.85770213E-001   8.63449624E-001
   7.00000000E+001   8.77951719E-001   2.85770873E-001   8.77952928E-001
   7.50000000E+001   8.90656753E-001   2.85771302E-001   8.90657633E-001
   8.00000000E+001   9.01783936E-001   2.85771590E-001   9.01784587E-001
   8.50000000E+001   9.11497992E-001   2.85771787E-001   9.11498483E-001
   9.00000000E+001   9.20097451E-001   2.85771926E-001   9.20097826E-001
   9.50000000E+001   9.27666080E-001   2.85772025E-001   9.27666371E-001
   1.00000000E+002   9.34416818E-001   2.85772097E-001   9.34417045E-001
   1.05000000E+002   9.40433941E-001   2.85772151E-001   9.40434122E-001
   1.10000000E+002   9.45748845E-001   2.85772191E-001   9.45748990E-001
   1.15000000E+002   9.50569236E-001   2.85772222E-001   9.50569353E-001
   1.20000000E+002   9.54867267E-001   2.85772245E-001   9.54867362E-001
   1.25000000E+002   9.58753415E-001   2.85772263E-001   9.58753493E-001
   1.30000000E+002   9.62267828E-001   2.85772278E-001   9.62267892E-001
   1.35000000E+002   9.65429365E-001   2.85772289E-001   9.65429419E-001
   1.40000000E+002   9.68287936E-001   2.85772298E-001   9.68287981E-001
   1.45000000E+002   9.70915921E-001   2.85772306E-001   9.70915959E-001
   1.50000000E+002   9.73259544E-001   2.85772312E-001   9.73259576E-001
   1.55000000E+002   9.75426729E-001   2.85772317E-001   9.75426757E-001
   1.60000000E+002   9.77405567E-001   2.85772321E-001   9.77405590E-001
   1.65000000E+002   9.79196148E-001   2.85772324E-001   9.79196168E-001
   1.70000000E+002   9.80841700E-001   2.85772327E-001   9.80841717E-001
   1.75000000E+002   9.82320537E-001   2.85772329E-001   9.82320552E-001
   1.80000000E+002   9.83692314E-001   2.85772331E-001   9.83692327E-001
   1.85000000E+002   9.84936479E-001   2.85772333E-001   9.84936490E-001
   1.90000000E+002   9.86089020E-001   2.85772334E-001   9.86089030E-001
   1.95000000E+002   9.87154714E-001   2.85772336E-001   9.87154723E-001
   2.00000000E+002   9.88120106E-001   2.85772337E-001   9.88120114E-001
   2.05000000E+002   9.89021646E-001   2.85772338E-001   9.89021653E-001
   2.10000000E+002   9.89836378E-001   2.85772338E-001   9.89836384E-001
   2.15000000E+002   9.90579629E-001   2.85772339E-001   9.90579634E-001
   2.20000000E+002   9.91277137E-001   2.85772340E-001   9.91277142E-001
   2.25000000E+002   9.91915131E-001   2.85772340E-001   9.91915136E-001
   2.30000000E+002   9.92505927E-001   2.85772341E-001   9.92505931E-001
   2.35000000E+002   9.93060176E-001   2.85772341E-001   9.93060180E-001
   2.40000000E+002   9.93557335E-001   2.85772341E-001   9.93557338E-001
   2.45000000E+002   9.94025104E-001   2.85772342E-001   9.94025107E-001
