# ./jetvheto -in n3lo-fixed-order/H125-LHC13-R04-mb-475-mt-1725-xmur050-xmuf050-log.fxd -xQ 1.0 -out benchmarks-n3lo-smallR/H125-LHC13-R04-mb-475-mt-1725-xmur050-xmuf050-xQ100-N3LO+NNLLa.R0-1.5.res -scheme a -order 2 -ptmax 500.01 -fixed_order 3 -small-r -loop-mass t+b -R0 1.5
# process = H    
# collider = pp   
# rts =  13000.000
# M   =    125.000
# muR =     62.500
# muF =     62.500
# Q   =    125.000
# p   =      5.000
# include_c1_squared =   F
# loop_mass  = t+b 
# alphas(MZ) =    0.11800
# alphas(M) =    0.11264
# alphas(muR) =    0.12516
# Rjet =      0.400
# order = NNLL
# pdf name and set = PDF4LHC15_nnlo_mc.LHgrid,    0
# matching scheme = a
# total cross sections [nb] at LO, NLOdiff, NNLOdiff, N3LOdiff =     0.014147    0.020254    0.008998    0.001413
#----------------------------------------------------------------------
# the lines that follow give the jet-veto efficiencies as a function of pt
#         pt            matched eff      resummed eff     fixed-order eff
   2.00000000E+001   5.07006344E-001   6.12566219E-001   4.41074844E-001
   2.50000000E+001   5.87118998E-001   6.83857643E-001   5.26291803E-001
   3.00000000E+001   6.55095265E-001   7.32203992E-001   5.99588615E-001
   3.50000000E+001   7.08792040E-001   7.64546128E-001   6.58104134E-001
   4.00000000E+001   7.49717379E-001   7.85593830E-001   7.03699261E-001
   4.50000000E+001   7.85733915E-001   7.98515392E-001   7.43908515E-001
   5.00000000E+001   8.14033354E-001   8.05516024E-001   7.76267730E-001
   5.50000000E+001   8.38529844E-001   8.08179473E-001   8.04438345E-001
   6.00000000E+001   8.58253376E-001   8.07658030E-001   8.27667847E-001
   6.50000000E+001   8.76623409E-001   8.04815488E-001   8.49073502E-001
   7.00000000E+001   8.90291328E-001   8.00315130E-001   8.65767048E-001
   7.50000000E+001   9.02496825E-001   7.94668299E-001   8.80674091E-001
   8.00000000E+001   9.13547024E-001   7.88278935E-001   8.94138038E-001
   8.50000000E+001   9.23328198E-001   7.81472042E-001   9.06106835E-001
   9.00000000E+001   9.31845709E-001   7.74509515E-001   9.16611008E-001
   9.50000000E+001   9.38442887E-001   7.67599770E-001   9.25078477E-001
   1.00000000E+002   9.44829720E-001   7.60906757E-001   9.33101787E-001
   1.05000000E+002   9.49803261E-001   7.54553332E-001   9.39585604E-001
   1.10000000E+002   9.54387731E-001   7.48625567E-001   9.45495190E-001
   1.15000000E+002   9.58834493E-001   7.43177540E-001   9.51094105E-001
   1.20000000E+002   9.62835417E-001   7.38234466E-001   9.56107678E-001
   1.25000000E+002   9.66122751E-001   7.33798857E-001   9.60296277E-001
   1.30000000E+002   9.68978435E-001   7.29855822E-001   9.63938023E-001
   1.35000000E+002   9.71918119E-001   7.26377896E-001   9.67546891E-001
   1.40000000E+002   9.74622388E-001   7.23329551E-001   9.70830250E-001
   1.45000000E+002   9.76953738E-001   7.20670969E-001   9.73664645E-001
   1.50000000E+002   9.78736378E-001   7.18360998E-001   9.75887820E-001
   1.55000000E+002   9.80892086E-001   7.16359288E-001   9.78411529E-001
   1.60000000E+002   9.82831156E-001   7.14627721E-001   9.80668095E-001
   1.65000000E+002   9.83954823E-001   7.13131210E-001   9.82074144E-001
   1.70000000E+002   9.85495207E-001   7.11838202E-001   9.83850040E-001
   1.75000000E+002   9.86963234E-001   7.10720736E-001   9.85520635E-001
   1.80000000E+002   9.88062974E-001   7.09754267E-001   9.86797346E-001
   1.85000000E+002   9.89088382E-001   7.08917468E-001   9.87975392E-001
   1.90000000E+002   9.90154423E-001   7.08191930E-001   9.89172337E-001
   1.95000000E+002   9.91143488E-001   7.07561840E-001   9.90274812E-001
   2.00000000E+002   9.92016326E-001   7.07013660E-001   9.91246363E-001
   2.05000000E+002   9.92705872E-001   7.06535823E-001   9.92022417E-001
   2.10000000E+002   9.93403867E-001   7.06118464E-001   9.92795408E-001
   2.15000000E+002   9.93945344E-001   7.05753170E-001   9.93402921E-001
   2.20000000E+002   9.94745073E-001   7.05432771E-001   9.94259310E-001
   2.25000000E+002   9.95141239E-001   7.05151149E-001   9.94706379E-001
   2.30000000E+002   9.95639820E-001   7.04903083E-001   9.95249343E-001
   2.35000000E+002   9.96005150E-001   7.04684109E-001   9.95654001E-001
   2.40000000E+002   9.96404545E-001   7.04490408E-001   9.96087982E-001
   2.45000000E+002   9.96871883E-001   7.04318707E-001   9.96585702E-001
