# ./jetvheto -in n3lo-fixed-order/H125-LHC13-R04-mb-0-mt-1725-xmur050-xmuf050-log.fxd -xQ 0.125 -out benchmarks-n3lo-smallR/H125-LHC13-R04-mb-0-mt-1725-xmur050-xmuf050-xQ0125-NNLO+NNLLb.R0-2.0.res -scheme b -order 2 -ptmax 500.01 -small-r -fixed_order 2 -loop-mass t -R0 2.0
# process = H    
# collider = pp   
# rts =  13000.000
# M   =    125.000
# muR =     62.500
# muF =     62.500
# Q   =     15.625
# p   =      5.000
# include_c1_squared =   F
# loop_mass  = t   
# alphas(MZ) =    0.11800
# alphas(M) =    0.11264
# alphas(muR) =    0.12516
# Rjet =      0.400
# order = NNLL
# pdf name and set = PDF4LHC15_nnlo_mc.LHgrid,    0
# matching scheme = b
# total cross sections [nb] at LO, NLOdiff, NNLOdiff, N3LOdiff =     0.015885    0.020561    0.008998    0.001413
#----------------------------------------------------------------------
# the lines that follow give the jet-veto efficiencies as a function of pt
#         pt            matched eff      resummed eff     fixed-order eff
   2.00000000E+001   3.47929177E-001   4.41679570E-001   3.37968833E-001
   2.50000000E+001   4.48479274E-001   4.56099258E-001   4.45490403E-001
   3.00000000E+001   5.30122264E-001   4.60798571E-001   5.29094091E-001
   3.50000000E+001   5.96249192E-001   4.62559549E-001   5.95850260E-001
   4.00000000E+001   6.50285965E-001   4.63308832E-001   6.50115846E-001
   4.50000000E+001   6.95017292E-001   4.63662220E-001   6.94939270E-001
   5.00000000E+001   7.32806974E-001   4.63843210E-001   7.32769177E-001
   5.50000000E+001   7.64381030E-001   4.63942300E-001   7.64361916E-001
   6.00000000E+001   7.91475338E-001   4.63999609E-001   7.91465371E-001
   6.50000000E+001   8.14843415E-001   4.64034306E-001   8.14838120E-001
   7.00000000E+001   8.35081477E-001   4.64056143E-001   8.35078651E-001
   7.50000000E+001   8.52572108E-001   4.64070351E-001   8.52570605E-001
   8.00000000E+001   8.67938177E-001   4.64079865E-001   8.67937405E-001
   8.50000000E+001   8.81478502E-001   4.64086398E-001   8.81478135E-001
   9.00000000E+001   8.93411970E-001   4.64090984E-001   8.93411828E-001
   9.50000000E+001   9.03868031E-001   4.64094269E-001   9.03868009E-001
   1.00000000E+002   9.13265950E-001   4.64096662E-001   9.13265993E-001
   1.05000000E+002   9.21489315E-001   4.64098435E-001   9.21489390E-001
   1.10000000E+002   9.28847755E-001   4.64099766E-001   9.28847842E-001
   1.15000000E+002   9.35451202E-001   4.64100780E-001   9.35451292E-001
   1.20000000E+002   9.41393400E-001   4.64101560E-001   9.41393487E-001
   1.25000000E+002   9.46790374E-001   4.64102167E-001   9.46790455E-001
   1.30000000E+002   9.51556260E-001   4.64102645E-001   9.51556334E-001
   1.35000000E+002   9.55861969E-001   4.64103024E-001   9.55862035E-001
   1.40000000E+002   9.59788647E-001   4.64103328E-001   9.59788706E-001
   1.45000000E+002   9.63356907E-001   4.64103573E-001   9.63356960E-001
   1.50000000E+002   9.66623692E-001   4.64103772E-001   9.66623739E-001
   1.55000000E+002   9.69559436E-001   4.64103935E-001   9.69559478E-001
   1.60000000E+002   9.72228116E-001   4.64104070E-001   9.72228153E-001
   1.65000000E+002   9.74639176E-001   4.64104181E-001   9.74639208E-001
   1.70000000E+002   9.76857052E-001   4.64104274E-001   9.76857081E-001
   1.75000000E+002   9.78869633E-001   4.64104352E-001   9.78869658E-001
   1.80000000E+002   9.80682440E-001   4.64104417E-001   9.80682463E-001
   1.85000000E+002   9.82361708E-001   4.64104473E-001   9.82361728E-001
   1.90000000E+002   9.83896812E-001   4.64104520E-001   9.83896830E-001
   1.95000000E+002   9.85296956E-001   4.64104560E-001   9.85296972E-001
   2.00000000E+002   9.86578344E-001   4.64104595E-001   9.86578358E-001
   2.05000000E+002   9.87752656E-001   4.64104624E-001   9.87752669E-001
   2.10000000E+002   9.88804438E-001   4.64104650E-001   9.88804449E-001
   2.15000000E+002   9.89799917E-001   4.64104672E-001   9.89799927E-001
   2.20000000E+002   9.90709432E-001   4.64104692E-001   9.90709441E-001
   2.25000000E+002   9.91517038E-001   4.64104709E-001   9.91517046E-001
   2.30000000E+002   9.92310494E-001   4.64104723E-001   9.92310501E-001
   2.35000000E+002   9.92992879E-001   4.64104736E-001   9.92992886E-001
   2.40000000E+002   9.93638197E-001   4.64104748E-001   9.93638203E-001
   2.45000000E+002   9.94228361E-001   4.64104758E-001   9.94228366E-001
