# ./jetvheto -in n3lo-fixed-order/H125-LHC13-R04-heft-xmur100-xmuf100-log.fxd -xQ 0.333 -out benchmarks-n3lo-smallR/H125-LHC13-R04-heft-xmur100-xmuf100-xQ033-N3LO+NNLLa.res -scheme a -order 2 -ptmax 500.01 -fixed_order 3
# process = H    
# collider = pp   
# rts =  13000.000
# M   =    125.000
# muR =    125.000
# muF =    125.000
# Q   =     41.625
# p   =      5.000
# include_c1_squared =   F
# loop_mass  = none
# alphas(MZ) =    0.11800
# alphas(M) =    0.11264
# alphas(muR) =    0.11264
# Rjet =      0.400
# order = NNLL
# pdf name and set = PDF4LHC15_nnlo_mc.LHgrid,    0
# matching scheme = a
# total cross sections [nb] at LO, NLOdiff, NNLOdiff, N3LOdiff =     0.012945    0.016716    0.010146    0.003834
#----------------------------------------------------------------------
# the lines that follow give the jet-veto efficiencies as a function of pt
#         pt            matched eff      resummed eff     fixed-order eff
   2.00000000E+001   4.56558021E-001   5.19249749E-001   4.60774143E-001
   2.50000000E+001   5.42641612E-001   5.98924276E-001   5.45786875E-001
   3.00000000E+001   6.14662825E-001   6.52719301E-001   6.17068533E-001
   3.50000000E+001   6.70670505E-001   6.87515841E-001   6.72113648E-001
   4.00000000E+001   7.15853607E-001   7.09082709E-001   7.16667414E-001
   4.50000000E+001   7.52422873E-001   7.22058162E-001   7.52873009E-001
   5.00000000E+001   7.83297314E-001   7.29786875E-001   7.83562730E-001
   5.50000000E+001   8.09615849E-001   7.34426070E-001   8.09784074E-001
   6.00000000E+001   8.31761750E-001   7.37264286E-001   8.31871310E-001
   6.50000000E+001   8.51522008E-001   7.39043710E-001   8.51599627E-001
   7.00000000E+001   8.68163807E-001   7.40188735E-001   8.68219188E-001
   7.50000000E+001   8.81976971E-001   7.40944549E-001   8.82015993E-001
   8.00000000E+001   8.94096826E-001   7.41455554E-001   8.94125116E-001
   8.50000000E+001   9.05047801E-001   7.41808765E-001   9.05069202E-001
   9.00000000E+001   9.14408473E-001   7.42057892E-001   9.14424589E-001
   9.50000000E+001   9.22971225E-001   7.42236866E-001   9.22983790E-001
   1.00000000E+002   9.30112952E-001   7.42367613E-001   9.30122626E-001
   1.05000000E+002   9.36521846E-001   7.42464595E-001   9.36529413E-001
   1.10000000E+002   9.42311098E-001   7.42537538E-001   9.42317122E-001
   1.15000000E+002   9.47494166E-001   7.42593105E-001   9.47498999E-001
   1.20000000E+002   9.52008794E-001   7.42635930E-001   9.52012685E-001
   1.25000000E+002   9.55910068E-001   7.42669293E-001   9.55913202E-001
   1.30000000E+002   9.59810608E-001   7.42695542E-001   9.59813209E-001
   1.35000000E+002   9.63252527E-001   7.42716385E-001   9.63254687E-001
   1.40000000E+002   9.66124996E-001   7.42733076E-001   9.66126784E-001
   1.45000000E+002   9.68887996E-001   7.42746549E-001   9.68889494E-001
   1.50000000E+002   9.71224102E-001   7.42757503E-001   9.71225357E-001
   1.55000000E+002   9.73730728E-001   7.42766472E-001   9.73731807E-001
   1.60000000E+002   9.75443447E-001   7.42773863E-001   9.75444349E-001
   1.65000000E+002   9.77282516E-001   7.42779990E-001   9.77283286E-001
   1.70000000E+002   9.78903962E-001   7.42785098E-001   9.78904621E-001
   1.75000000E+002   9.80485277E-001   7.42789380E-001   9.80485847E-001
   1.80000000E+002   9.81940694E-001   7.42792987E-001   9.81941189E-001
   1.85000000E+002   9.83250695E-001   7.42796040E-001   9.83251126E-001
   1.90000000E+002   9.84170153E-001   7.42798636E-001   9.84170523E-001
   1.95000000E+002   9.85361987E-001   7.42800853E-001   9.85362313E-001
   2.00000000E+002   9.86383118E-001   7.42802753E-001   9.86383405E-001
   2.05000000E+002   9.87259813E-001   7.42804389E-001   9.87260065E-001
   2.10000000E+002   9.88056072E-001   7.42805802E-001   9.88056295E-001
   2.15000000E+002   9.88934026E-001   7.42807027E-001   9.88934225E-001
   2.20000000E+002   9.89579561E-001   7.42808093E-001   9.89579737E-001
   2.25000000E+002   9.90260996E-001   7.42809022E-001   9.90261153E-001
   2.30000000E+002   9.90900780E-001   7.42809836E-001   9.90900921E-001
   2.35000000E+002   9.91501680E-001   7.42810550E-001   9.91501805E-001
   2.40000000E+002   9.91923148E-001   7.42811178E-001   9.91923260E-001
   2.45000000E+002   9.92472910E-001   7.42811733E-001   9.92473011E-001
