# ./jetvheto -in n3lo-fixed-order/H125-LHC13-R04-mb-475-mt-1725-xmur050-xmuf100-log.fxd -xQ 0.5 -out benchmarks-n3lo-smallR/H125-LHC13-R04-mb-475-mt-1725-xmur050-xmuf100-xQ050-NNLO+NNLLb.R0-0.5.res -scheme b -order 2 -ptmax 500.01 -fixed_order 2 -small-r -loop-mass t+b -R0 0.5
# process = H    
# collider = pp   
# rts =  13000.000
# M   =    125.000
# muR =     62.500
# muF =    125.000
# Q   =     62.500
# p   =      5.000
# include_c1_squared =   F
# loop_mass  = t+b 
# alphas(MZ) =    0.11800
# alphas(M) =    0.11264
# alphas(muR) =    0.12516
# Rjet =      0.400
# order = NNLL
# pdf name and set = PDF4LHC15_nnlo_mc.LHgrid,    0
# matching scheme = b
# total cross sections [nb] at LO, NLOdiff, NNLOdiff, N3LOdiff =     0.015023    0.020252    0.008553    0.000949
#----------------------------------------------------------------------
# the lines that follow give the jet-veto efficiencies as a function of pt
#         pt            matched eff      resummed eff     fixed-order eff
   2.00000000E+001   4.08335812E-001   4.85153257E-001   3.20313286E-001
   2.50000000E+001   4.93183480E-001   5.59204135E-001   4.29278925E-001
   3.00000000E+001   5.62321617E-001   6.11022033E-001   5.14383374E-001
   3.50000000E+001   6.19274211E-001   6.46816999E-001   5.82581444E-001
   4.00000000E+001   6.66458000E-001   6.71042184E-001   6.38164221E-001
   4.50000000E+001   7.05997529E-001   6.86974303E-001   6.84150076E-001
   5.00000000E+001   7.39530882E-001   6.97088454E-001   7.22713547E-001
   5.50000000E+001   7.68126118E-001   7.03266078E-001   7.55241710E-001
   6.00000000E+001   7.93024011E-001   7.06903933E-001   7.83192109E-001
   6.50000000E+001   8.14750358E-001   7.08983637E-001   8.07260822E-001
   7.00000000E+001   8.33741171E-001   7.10149108E-001   8.28031068E-001
   7.50000000E+001   8.50463291E-001   7.10796118E-001   8.46095587E-001
   8.00000000E+001   8.65338184E-001   7.11155350E-001   8.61978585E-001
   8.50000000E+001   8.78400895E-001   7.11356260E-001   8.75799202E-001
   9.00000000E+001   8.90154730E-001   7.11470059E-001   8.88124135E-001
   9.50000000E+001   9.00532704E-001   7.11535562E-001   8.98934980E-001
   1.00000000E+002   9.09796070E-001   7.11573952E-001   9.08528436E-001
   1.05000000E+002   9.18117438E-001   7.11596881E-001   9.17103329E-001
   1.10000000E+002   9.25468915E-001   7.11610842E-001   9.24651250E-001
   1.15000000E+002   9.32149713E-001   7.11619505E-001   9.31485289E-001
   1.20000000E+002   9.38062245E-001   7.11624981E-001   9.37518444E-001
   1.25000000E+002   9.43473759E-001   7.11628504E-001   9.43025509E-001
   1.30000000E+002   9.48332078E-001   7.11630810E-001   9.47960161E-001
   1.35000000E+002   9.52753406E-001   7.11632345E-001   9.52442895E-001
   1.40000000E+002   9.56690415E-001   7.11633382E-001   9.56429641E-001
   1.45000000E+002   9.60355401E-001   7.11634094E-001   9.60135174E-001
   1.50000000E+002   9.63595484E-001   7.11634589E-001   9.63408528E-001
   1.55000000E+002   9.66590977E-001   7.11634939E-001   9.66431468E-001
   1.60000000E+002   9.69311633E-001   7.11635189E-001   9.69174914E-001
   1.65000000E+002   9.71782007E-001   7.11635370E-001   9.71664297E-001
   1.70000000E+002   9.74054662E-001   7.11635503E-001   9.73952895E-001
   1.75000000E+002   9.76094714E-001   7.11635601E-001   9.76006381E-001
   1.80000000E+002   9.77977964E-001   7.11635675E-001   9.77901002E-001
   1.85000000E+002   9.79687942E-001   7.11635731E-001   9.79620647E-001
   1.90000000E+002   9.81264964E-001   7.11635774E-001   9.81205921E-001
   1.95000000E+002   9.82739687E-001   7.11635807E-001   9.82687714E-001
   2.00000000E+002   9.84066937E-001   7.11635833E-001   9.84021048E-001
   2.05000000E+002   9.85303223E-001   7.11635854E-001   9.85262585E-001
   2.10000000E+002   9.86425693E-001   7.11635870E-001   9.86389604E-001
   2.15000000E+002   9.87432268E-001   7.11635883E-001   9.87400133E-001
   2.20000000E+002   9.88387479E-001   7.11635894E-001   9.88358791E-001
   2.25000000E+002   9.89257911E-001   7.11635903E-001   9.89232237E-001
   2.30000000E+002   9.90060159E-001   7.11635910E-001   9.90037128E-001
   2.35000000E+002   9.90815149E-001   7.11635916E-001   9.90794442E-001
   2.40000000E+002   9.91486042E-001   7.11635921E-001   9.91467385E-001
   2.45000000E+002   9.92124631E-001   7.11635925E-001   9.92107784E-001
