# ./jetvheto -in n3lo-fixed-order/H125-LHC13-R04-mb-0-mt-1725-xmur200-xmuf100-log.fxd -xQ 0.5 -out benchmarks-n3lo-smallR/H125-LHC13-R04-mb-0-mt-1725-xmur200-xmuf100-xQ050-N3LO+NNLLa.R0-0.5.res -scheme a -order 2 -ptmax 500.01 -small-r -fixed_order 3 -loop-mass t -R0 0.5
# process = H    
# collider = pp   
# rts =  13000.000
# M   =    125.000
# muR =    250.000
# muF =    125.000
# Q   =     62.500
# p   =      5.000
# include_c1_squared =   F
# loop_mass  = t   
# alphas(MZ) =    0.11800
# alphas(M) =    0.11264
# alphas(muR) =    0.10244
# Rjet =      0.400
# order = NNLL
# pdf name and set = PDF4LHC15_nnlo_mc.LHgrid,    0
# matching scheme = a
# total cross sections [nb] at LO, NLOdiff, NNLOdiff, N3LOdiff =     0.011501    0.015066    0.010526    0.005600
#----------------------------------------------------------------------
# the lines that follow give the jet-veto efficiencies as a function of pt
#         pt            matched eff      resummed eff     fixed-order eff
   2.00000000E+001   4.70967127E-001   5.32580341E-001   4.90754923E-001
   2.50000000E+001   5.59089919E-001   6.19911385E-001   5.73235191E-001
   3.00000000E+001   6.30773427E-001   6.82450334E-001   6.40126678E-001
   3.50000000E+001   6.86950241E-001   7.26694404E-001   6.92213126E-001
   4.00000000E+001   7.31957985E-001   7.57447971E-001   7.34315482E-001
   4.50000000E+001   7.68068805E-001   7.78324321E-001   7.68570187E-001
   5.00000000E+001   7.97978730E-001   7.92105231E-001   7.97452991E-001
   5.50000000E+001   8.22992148E-001   8.00947610E-001   8.22000414E-001
   6.00000000E+001   8.43884335E-001   8.06489730E-001   8.42763416E-001
   6.50000000E+001   8.62123761E-001   8.09915138E-001   8.61058104E-001
   7.00000000E+001   8.77490526E-001   8.12027109E-001   8.76555984E-001
   7.50000000E+001   8.90460311E-001   8.13340659E-001   8.89675686E-001
   8.00000000E+001   9.01828861E-001   8.14172053E-001   9.01186361E-001
   8.50000000E+001   9.11985683E-001   8.14710465E-001   9.11466536E-001
   9.00000000E+001   9.20745892E-001   8.15068159E-001   9.20328326E-001
   9.50000000E+001   9.28673944E-001   8.15312007E-001   9.28338424E-001
   1.00000000E+002   9.35452677E-001   8.15482394E-001   9.35182357E-001
   1.05000000E+002   9.41525693E-001   8.15604188E-001   9.41307045E-001
   1.10000000E+002   9.46957474E-001   8.15693056E-001   9.46779771E-001
   1.15000000E+002   9.51858616E-001   8.15759099E-001   9.51713368E-001
   1.20000000E+002   9.56156915E-001   8.15808988E-001   9.56037512E-001
   1.25000000E+002   9.59936837E-001   8.15847227E-001   9.59838094E-001
   1.30000000E+002   9.63603627E-001   8.15876919E-001   9.63521519E-001
   1.35000000E+002   9.66836333E-001   8.15900243E-001   9.66767667E-001
   1.40000000E+002   9.69631950E-001   8.15918759E-001   9.69574216E-001
   1.45000000E+002   9.72266308E-001   8.15933597E-001   9.72217507E-001
   1.50000000E+002   9.74539470E-001   8.15945592E-001   9.74498018E-001
   1.55000000E+002   9.76872160E-001   8.15955364E-001   9.76836788E-001
   1.60000000E+002   9.78625811E-001   8.15963385E-001   9.78595480E-001
   1.65000000E+002   9.80396727E-001   8.15970012E-001   9.80370612E-001
   1.70000000E+002   9.81971618E-001   8.15975521E-001   9.81949039E-001
   1.75000000E+002   9.83462447E-001   8.15980128E-001   9.83442850E-001
   1.80000000E+002   9.84835630E-001   8.15984002E-001   9.84818558E-001
   1.85000000E+002   9.86073875E-001   8.15987275E-001   9.86058950E-001
   1.90000000E+002   9.87035215E-001   8.15990054E-001   9.87022120E-001
   1.95000000E+002   9.88130685E-001   8.15992424E-001   9.88119161E-001
   2.00000000E+002   9.89081245E-001   8.15994454E-001   9.89071072E-001
   2.05000000E+002   9.89922562E-001   8.15996199E-001   9.89913555E-001
   2.10000000E+002   9.90678329E-001   8.15997706E-001   9.90670331E-001
   2.15000000E+002   9.91464001E-001   8.15999011E-001   9.91456881E-001
   2.20000000E+002   9.92085610E-001   8.16000146E-001   9.92079255E-001
   2.25000000E+002   9.92708627E-001   8.16001135E-001   9.92702941E-001
   2.30000000E+002   9.93288187E-001   8.16002000E-001   9.93283087E-001
   2.35000000E+002   9.93826621E-001   8.16002760E-001   9.93822036E-001
   2.40000000E+002   9.94232819E-001   8.16003428E-001   9.94228689E-001
   2.45000000E+002   9.94710744E-001   8.16004017E-001   9.94707015E-001
