# ./jetvheto -in n3lo-fixed-order/H125-LHC13-R04-mb-475-mt-1725-xmur050-xmuf025-log.fxd -xQ 0.5 -out benchmarks-n3lo-smallR/H125-LHC13-R04-mb-475-mt-1725-xmur050-xmuf025-xQ050-N3LO+NNLLb.R0-0.5.res -scheme b -order 2 -ptmax 500.01 -fixed_order 3 -small-r -loop-mass t+b -R0 0.5
# process = H    
# collider = pp   
# rts =  13000.000
# M   =    125.000
# muR =     62.500
# muF =     31.250
# Q   =     62.500
# p   =      5.000
# include_c1_squared =   F
# loop_mass  = t+b 
# alphas(MZ) =    0.11800
# alphas(M) =    0.11264
# alphas(muR) =    0.12516
# Rjet =      0.400
# order = NNLL
# pdf name and set = PDF4LHC15_nnlo_mc.LHgrid,    0
# matching scheme = b
# total cross sections [nb] at LO, NLOdiff, NNLOdiff, N3LOdiff =     0.012926    0.020318    0.009723    0.001827
#----------------------------------------------------------------------
# the lines that follow give the jet-veto efficiencies as a function of pt
#         pt            matched eff      resummed eff     fixed-order eff
   2.00000000E+001   4.25435364E-001   4.57043048E-001   4.15980545E-001
   2.50000000E+001   5.16022813E-001   5.35222188E-001   5.07800100E-001
   3.00000000E+001   5.88346395E-001   5.91314306E-001   5.80656478E-001
   3.50000000E+001   6.46882820E-001   6.31040147E-001   6.39756651E-001
   4.00000000E+001   6.95291760E-001   6.58718761E-001   6.88975344E-001
   4.50000000E+001   7.35996504E-001   6.77564031E-001   7.30606525E-001
   5.00000000E+001   7.69882934E-001   6.90046420E-001   7.65403404E-001
   5.50000000E+001   7.99375142E-001   6.98092806E-001   7.95769940E-001
   6.00000000E+001   8.23819869E-001   7.03166441E-001   8.20952172E-001
   6.50000000E+001   8.43547575E-001   7.06324600E-001   8.41282612E-001
   7.00000000E+001   8.62117205E-001   7.08287306E-001   8.60356605E-001
   7.50000000E+001   8.77948979E-001   7.09518344E-001   8.76584241E-001
   8.00000000E+001   8.91238500E-001   7.10304289E-001   8.90175714E-001
   8.50000000E+001   9.03544313E-001   7.10817609E-001   9.02715631E-001
   9.00000000E+001   9.14313249E-001   7.11161339E-001   9.13663383E-001
   9.50000000E+001   9.22409521E-001   7.11397336E-001   9.21894582E-001
   1.00000000E+002   9.31186740E-001   7.11563258E-001   9.30777862E-001
   1.05000000E+002   9.38032672E-001   7.11682488E-001   9.37704516E-001
   1.10000000E+002   9.44959196E-001   7.11769868E-001   9.44694592E-001
   1.15000000E+002   9.50935466E-001   7.11835044E-001   9.50720349E-001
   1.20000000E+002   9.55734605E-001   7.11884427E-001   9.55558232E-001
   1.25000000E+002   9.59901021E-001   7.11922372E-001   9.59755469E-001
   1.30000000E+002   9.64141089E-001   7.11951895E-001   9.64020346E-001
   1.35000000E+002   9.67658668E-001   7.11975125E-001   9.67557819E-001
   1.40000000E+002   9.70950431E-001   7.11993592E-001   9.70865759E-001
   1.45000000E+002   9.74000528E-001   7.12008407E-001   9.73929043E-001
   1.50000000E+002   9.76612555E-001   7.12020394E-001   9.76551883E-001
   1.55000000E+002   9.79008618E-001   7.12030169E-001   9.78956876E-001
   1.60000000E+002   9.81504097E-001   7.12038196E-001   9.81459799E-001
   1.65000000E+002   9.83353859E-001   7.12044831E-001   9.83315727E-001
   1.70000000E+002   9.84904406E-001   7.12050351E-001   9.84871440E-001
   1.75000000E+002   9.86735405E-001   7.12054968E-001   9.86706822E-001
   1.80000000E+002   9.87985574E-001   7.12058851E-001   9.87960674E-001
   1.85000000E+002   9.89408148E-001   7.12062133E-001   9.89386397E-001
   1.90000000E+002   9.90541253E-001   7.12064920E-001   9.90522177E-001
   1.95000000E+002   9.91741986E-001   7.12067298E-001   9.91725209E-001
   2.00000000E+002   9.92608120E-001   7.12069335E-001   9.92593312E-001
   2.05000000E+002   9.93454371E-001   7.12071086E-001   9.93441263E-001
   2.10000000E+002   9.94218718E-001   7.12072598E-001   9.94207082E-001
   2.15000000E+002   9.95068736E-001   7.12073908E-001   9.95058385E-001
   2.20000000E+002   9.95668406E-001   7.12075047E-001   9.95659169E-001
   2.25000000E+002   9.96356876E-001   7.12076040E-001   9.96348616E-001
   2.30000000E+002   9.96854726E-001   7.12076909E-001   9.96847320E-001
   2.35000000E+002   9.97225409E-001   7.12077672E-001   9.97218752E-001
   2.40000000E+002   9.97744064E-001   7.12078342E-001   9.97738071E-001
   2.45000000E+002   9.98166125E-001   7.12078934E-001   9.98160716E-001
