# ./jetvheto -in n3lo-fixed-order/H125-LHC13-R04-heft-xmur100-xmuf100-log.fxd -xQ 0.333 -out benchmarks-n3lo-smallR/H125-LHC13-R04-heft-xmur100-xmuf100-xQ033-N3LO+NNLLb.R0-2.0.res -scheme b -order 2 -ptmax 500.01 -fixed_order 3 -small-r -R0 2.0
# process = H    
# collider = pp   
# rts =  13000.000
# M   =    125.000
# muR =    125.000
# muF =    125.000
# Q   =     41.625
# p   =      5.000
# include_c1_squared =   F
# loop_mass  = none
# alphas(MZ) =    0.11800
# alphas(M) =    0.11264
# alphas(muR) =    0.11264
# Rjet =      0.400
# order = NNLL
# pdf name and set = PDF4LHC15_nnlo_mc.LHgrid,    0
# matching scheme = b
# total cross sections [nb] at LO, NLOdiff, NNLOdiff, N3LOdiff =     0.012945    0.016716    0.010146    0.003834
#----------------------------------------------------------------------
# the lines that follow give the jet-veto efficiencies as a function of pt
#         pt            matched eff      resummed eff     fixed-order eff
   2.00000000E+001   4.34764702E-001   5.24944016E-001   4.08842854E-001
   2.50000000E+001   5.18048628E-001   6.02721612E-001   5.02042917E-001
   3.00000000E+001   5.89633328E-001   6.55158036E-001   5.80189507E-001
   3.50000000E+001   6.46319025E-001   6.89043378E-001   6.40535859E-001
   4.00000000E+001   6.92964038E-001   7.10029708E-001   6.89380469E-001
   4.50000000E+001   7.31330893E-001   7.22648029E-001   7.29072921E-001
   5.00000000E+001   7.64156929E-001   7.30160307E-001   7.62718280E-001
   5.50000000E+001   7.92397674E-001   7.34667938E-001   7.91464926E-001
   6.00000000E+001   8.16301175E-001   7.37424954E-001   8.15679320E-001
   6.50000000E+001   8.37728770E-001   7.39153164E-001   8.37307615E-001
   7.00000000E+001   8.55821019E-001   7.40265102E-001   8.55527758E-001
   7.50000000E+001   8.70863552E-001   7.40999015E-001   8.70653294E-001
   8.00000000E+001   8.84082160E-001   7.41495185E-001   8.83928611E-001
   8.50000000E+001   8.96040314E-001   7.41838129E-001   8.95926690E-001
   9.00000000E+001   9.06268879E-001   7.42080008E-001   9.06183068E-001
   9.50000000E+001   9.15632078E-001   7.42253772E-001   9.15566581E-001
   1.00000000E+002   9.23443861E-001   7.42380710E-001   9.23392937E-001
   1.05000000E+002   9.30456785E-001   7.42474866E-001   9.30416744E-001
   1.10000000E+002   9.36793639E-001   7.42545684E-001   9.36761850E-001
   1.15000000E+002   9.42468283E-001   7.42599630E-001   9.42442779E-001
   1.20000000E+002   9.47411839E-001   7.42641207E-001   9.47391165E-001
   1.25000000E+002   9.51684259E-001   7.42673597E-001   9.51667329E-001
   1.30000000E+002   9.55956845E-001   7.42699081E-001   9.55942935E-001
   1.35000000E+002   9.59727379E-001   7.42719315E-001   9.59715852E-001
   1.40000000E+002   9.62874189E-001   7.42735520E-001   9.62864552E-001
   1.45000000E+002   9.65901429E-001   7.42748599E-001   9.65893331E-001
   1.50000000E+002   9.68461006E-001   7.42759234E-001   9.68454154E-001
   1.55000000E+002   9.71207800E-001   7.42767942E-001   9.71201993E-001
   1.60000000E+002   9.73084443E-001   7.42775117E-001   9.73079465E-001
   1.65000000E+002   9.75099779E-001   7.42781065E-001   9.75095505E-001
   1.70000000E+002   9.76876675E-001   7.42786024E-001   9.76872986E-001
   1.75000000E+002   9.78609688E-001   7.42790181E-001   9.78606495E-001
   1.80000000E+002   9.80204772E-001   7.42793683E-001   9.80201996E-001
   1.85000000E+002   9.81640512E-001   7.42796647E-001   9.81638090E-001
   1.90000000E+002   9.82648160E-001   7.42799167E-001   9.82646032E-001
   1.95000000E+002   9.83954469E-001   7.42801319E-001   9.83952600E-001
   2.00000000E+002   9.85073678E-001   7.42803164E-001   9.85072030E-001
   2.05000000E+002   9.86034577E-001   7.42804752E-001   9.86033119E-001
   2.10000000E+002   9.86907325E-001   7.42806124E-001   9.86906031E-001
   2.15000000E+002   9.87869662E-001   7.42807314E-001   9.87868512E-001
   2.20000000E+002   9.88577218E-001   7.42808348E-001   9.88576191E-001
   2.25000000E+002   9.89324151E-001   7.42809250E-001   9.89323232E-001
   2.30000000E+002   9.90025438E-001   7.42810040E-001   9.90024614E-001
   2.35000000E+002   9.90684109E-001   7.42810733E-001   9.90683369E-001
   2.40000000E+002   9.91146079E-001   7.42811343E-001   9.91145412E-001
   2.45000000E+002   9.91748710E-001   7.42811882E-001   9.91748108E-001
