# ./jetvheto -in n3lo-fixed-order/H125-LHC13-R04-mb-0-mt-1725-xmur025-xmuf050-log.fxd -xQ 0.5 -out benchmarks-n3lo-smallR/H125-LHC13-R04-mb-0-mt-1725-xmur025-xmuf050-xQ050-NNLO+NNLLa.R0-0.5.res -scheme a -order 2 -ptmax 500.01 -small-r -fixed_order 2 -loop-mass t -R0 0.5
# process = H    
# collider = pp   
# rts =  13000.000
# M   =    125.000
# muR =     31.250
# muF =     62.500
# Q   =     62.500
# p   =      5.000
# include_c1_squared =   F
# loop_mass  = t   
# alphas(MZ) =    0.11800
# alphas(M) =    0.11264
# alphas(muR) =    0.14091
# Rjet =      0.400
# order = NNLL
# pdf name and set = PDF4LHC15_nnlo_mc.LHgrid,    0
# matching scheme = a
# total cross sections [nb] at LO, NLOdiff, NNLOdiff, N3LOdiff =     0.019855    0.024744    0.005009   -0.002663
#----------------------------------------------------------------------
# the lines that follow give the jet-veto efficiencies as a function of pt
#         pt            matched eff      resummed eff     fixed-order eff
   2.00000000E+001   4.84187941E-001   4.91252784E-001   4.32957478E-001
   2.50000000E+001   5.68147667E-001   5.61066238E-001   5.23268277E-001
   3.00000000E+001   6.33609193E-001   6.09229997E-001   5.94997758E-001
   3.50000000E+001   6.85536143E-001   6.42029708E-001   6.52852727E-001
   4.00000000E+001   7.27332500E-001   6.63883766E-001   7.00189076E-001
   4.50000000E+001   7.61542303E-001   6.77974866E-001   7.39439888E-001
   5.00000000E+001   7.90275641E-001   6.86686850E-001   7.72597069E-001
   5.50000000E+001   8.14261578E-001   6.91820961E-001   8.00363223E-001
   6.00000000E+001   8.34929606E-001   6.94698751E-001   8.24125039E-001
   6.50000000E+001   8.52927278E-001   6.96231587E-001   8.44589142E-001
   7.00000000E+001   8.68730640E-001   6.97006165E-001   8.62316742E-001
   7.50000000E+001   8.82500343E-001   6.97374075E-001   8.77562874E-001
   8.00000000E+001   8.94752442E-001   6.97533293E-001   8.90937501E-001
   8.50000000E+001   9.05650995E-001   6.97589827E-001   9.02686522E-001
   9.00000000E+001   9.15340249E-001   6.97598519E-001   9.13020832E-001
   9.50000000E+001   9.23845803E-001   6.97586737E-001   9.22017282E-001
   1.00000000E+002   9.31535259E-001   6.97567682E-001   9.30082050E-001
   1.05000000E+002   9.38264957E-001   6.97547444E-001   9.37101049E-001
   1.10000000E+002   9.44313202E-001   6.97528616E-001   9.43373741E-001
   1.15000000E+002   9.49733675E-001   6.97512111E-001   9.48969590E-001
   1.20000000E+002   9.54611535E-001   6.97498076E-001   9.53985574E-001
   1.25000000E+002   9.59039671E-001   6.97486331E-001   9.58523292E-001
   1.30000000E+002   9.62930105E-001   6.97476580E-001   9.62501393E-001
   1.35000000E+002   9.66456783E-001   6.97468515E-001   9.66098675E-001
   1.40000000E+002   9.69657464E-001   6.97461846E-001   9.69356558E-001
   1.45000000E+002   9.72543933E-001   6.97456327E-001   9.72289680E-001
   1.50000000E+002   9.75189967E-001   6.97451748E-001   9.74974013E-001
   1.55000000E+002   9.77556907E-001   6.97447938E-001   9.77372588E-001
   1.60000000E+002   9.79700843E-001   6.97444758E-001   9.79542793E-001
   1.65000000E+002   9.81624278E-001   6.97442092E-001   9.81488158E-001
   1.70000000E+002   9.83394890E-001   6.97439850E-001   9.83277166E-001
   1.75000000E+002   9.85004478E-001   6.97437956E-001   9.84902266E-001
   1.80000000E+002   9.86433566E-001   6.97436352E-001   9.86344489E-001
   1.85000000E+002   9.87755172E-001   6.97434986E-001   9.87677261E-001
   1.90000000E+002   9.88962916E-001   6.97433820E-001   9.88894543E-001
   1.95000000E+002   9.90052656E-001   6.97432820E-001   9.89992458E-001
   2.00000000E+002   9.91044954E-001   6.97431960E-001   9.90991790E-001
   2.05000000E+002   9.91956045E-001   6.97431219E-001   9.91908957E-001
   2.10000000E+002   9.92759007E-001   6.97430576E-001   9.92717184E-001
   2.15000000E+002   9.93524155E-001   6.97430018E-001   9.93486906E-001
   2.20000000E+002   9.94220303E-001   6.97429532E-001   9.94187045E-001
   2.25000000E+002   9.94821056E-001   6.97429107E-001   9.94791288E-001
   2.30000000E+002   9.95431783E-001   6.97428735E-001   9.95405075E-001
   2.35000000E+002   9.95940664E-001   6.97428407E-001   9.95916649E-001
   2.40000000E+002   9.96421256E-001   6.97428119E-001   9.96399614E-001
   2.45000000E+002   9.96860029E-001   6.97427865E-001   9.96840486E-001
