# ./jetvheto -in n3lo-fixed-order/H125-LHC13-R04-mb-0-mt-1725-xmur050-xmuf025-log.fxd -xQ 0.5 -out benchmarks-n3lo-smallR/H125-LHC13-R04-mb-0-mt-1725-xmur050-xmuf025-xQ050-NNLO+NNLLb.R0-1.5.res -scheme b -order 2 -ptmax 500.01 -small-r -fixed_order 2 -loop-mass t -R0 1.5
# process = H    
# collider = pp   
# rts =  13000.000
# M   =    125.000
# muR =     62.500
# muF =     31.250
# Q   =     62.500
# p   =      5.000
# include_c1_squared =   F
# loop_mass  = t   
# alphas(MZ) =    0.11800
# alphas(M) =    0.11264
# alphas(muR) =    0.12516
# Rjet =      0.400
# order = NNLL
# pdf name and set = PDF4LHC15_nnlo_mc.LHgrid,    0
# matching scheme = b
# total cross sections [nb] at LO, NLOdiff, NNLOdiff, N3LOdiff =     0.014513    0.020714    0.009723    0.001827
#----------------------------------------------------------------------
# the lines that follow give the jet-veto efficiencies as a function of pt
#         pt            matched eff      resummed eff     fixed-order eff
   2.00000000E+001   4.20195502E-001   4.92681887E-001   3.17487847E-001
   2.50000000E+001   5.01880468E-001   5.71971068E-001   4.26754407E-001
   3.00000000E+001   5.68090101E-001   6.28644460E-001   5.11966558E-001
   3.50000000E+001   6.22799683E-001   6.68654199E-001   5.80470117E-001
   4.00000000E+001   6.68403091E-001   6.96437936E-001   6.36364792E-001
   4.50000000E+001   7.06822340E-001   7.15278684E-001   6.82611528E-001
   5.00000000E+001   7.39781440E-001   7.27693926E-001   7.21540031E-001
   5.50000000E+001   7.68135795E-001   7.35644616E-001   7.54444177E-001
   6.00000000E+001   7.92891322E-001   7.40617109E-001   7.82634803E-001
   6.50000000E+001   8.14665589E-001   7.43682193E-001   8.06977613E-001
   7.00000000E+001   8.33909101E-001   7.45565943E-001   8.28128874E-001
   7.50000000E+001   8.50757894E-001   7.46733314E-001   8.46387939E-001
   8.00000000E+001   8.65893575E-001   7.47469491E-001   8.62566302E-001
   8.50000000E+001   8.79260319E-001   7.47944578E-001   8.76705809E-001
   9.00000000E+001   8.91225286E-001   7.48259174E-001   8.89246129E-001
   9.50000000E+001   9.01788784E-001   7.48473012E-001   9.00241110E-001
   1.00000000E+002   9.11311219E-001   7.48622046E-001   9.10089763E-001
   1.05000000E+002   9.19871358E-001   7.48728343E-001   9.18898671E-001
   1.10000000E+002   9.27490949E-001   7.48805758E-001   9.26709709E-001
   1.15000000E+002   9.34414624E-001   7.48863202E-001   9.33781944E-001
   1.20000000E+002   9.40635951E-001   7.48906540E-001   9.40119549E-001
   1.25000000E+002   9.46158315E-001   7.48939723E-001   9.45733708E-001
   1.30000000E+002   9.51200394E-001   7.48965466E-001   9.50848857E-001
   1.35000000E+002   9.55745573E-001   7.48985675E-001   9.55452646E-001
   1.40000000E+002   9.59875142E-001   7.49001707E-001   9.59629530E-001
   1.45000000E+002   9.63661516E-001   7.49014550E-001   9.63454390E-001
   1.50000000E+002   9.67051727E-001   7.49024927E-001   9.66876104E-001
   1.55000000E+002   9.70136433E-001   7.49033379E-001   9.69986758E-001
   1.60000000E+002   9.72966191E-001   7.49040313E-001   9.72838016E-001
   1.65000000E+002   9.75541453E-001   7.49046042E-001   9.75431192E-001
   1.70000000E+002   9.77855750E-001   7.49050803E-001   9.77760487E-001
   1.75000000E+002   9.79972244E-001   7.49054784E-001   9.79889608E-001
   1.80000000E+002   9.81909735E-001   7.49058131E-001   9.81837773E-001
   1.85000000E+002   9.83662844E-001   7.49060958E-001   9.83599946E-001
   1.90000000E+002   9.85287816E-001   7.49063359E-001   9.85232651E-001
   1.95000000E+002   9.86784685E-001   7.49065406E-001   9.86736143E-001
   2.00000000E+002   9.88128824E-001   7.49067159E-001   9.88085975E-001
   2.05000000E+002   9.89380607E-001   7.49068667E-001   9.89342669E-001
   2.10000000E+002   9.90535679E-001   7.49069968E-001   9.90501995E-001
   2.15000000E+002   9.91538212E-001   7.49071095E-001   9.91508223E-001
   2.20000000E+002   9.92488152E-001   7.49072074E-001   9.92461383E-001
   2.25000000E+002   9.93370690E-001   7.49072929E-001   9.93346737E-001
   2.30000000E+002   9.94153921E-001   7.49073676E-001   9.94132434E-001
   2.35000000E+002   9.94869459E-001   7.49074331E-001   9.94850142E-001
   2.40000000E+002   9.95514145E-001   7.49074908E-001   9.95496740E-001
   2.45000000E+002   9.96122152E-001   7.49075417E-001   9.96106437E-001
