# ./jetvheto -in n3lo-fixed-order/H125-LHC13-R04-mb-0-mt-1725-xmur050-xmuf050-log.fxd -xQ 0.333 -out benchmarks-n3lo-smallR/H125-LHC13-R04-mb-0-mt-1725-xmur050-xmuf050-xQ033-N3LO+NNLLb.R0-2.0.res -scheme b -order 2 -ptmax 500.01 -small-r -fixed_order 3 -loop-mass t -R0 2.0
# process = H    
# collider = pp   
# rts =  13000.000
# M   =    125.000
# muR =     62.500
# muF =     62.500
# Q   =     41.625
# p   =      5.000
# include_c1_squared =   F
# loop_mass  = t   
# alphas(MZ) =    0.11800
# alphas(M) =    0.11264
# alphas(muR) =    0.12516
# Rjet =      0.400
# order = NNLL
# pdf name and set = PDF4LHC15_nnlo_mc.LHgrid,    0
# matching scheme = b
# total cross sections [nb] at LO, NLOdiff, NNLOdiff, N3LOdiff =     0.015885    0.020561    0.008998    0.001413
#----------------------------------------------------------------------
# the lines that follow give the jet-veto efficiencies as a function of pt
#         pt            matched eff      resummed eff     fixed-order eff
   2.00000000E+001   4.55786472E-001   4.96330581E-001   4.41643521E-001
   2.50000000E+001   5.39523798E-001   5.70633680E-001   5.29528045E-001
   3.00000000E+001   6.10520264E-001   6.20967807E-001   6.04131024E-001
   3.50000000E+001   6.67511699E-001   6.53629984E-001   6.63337130E-001
   4.00000000E+001   7.12128661E-001   6.73939975E-001   7.09302441E-001
   4.50000000E+001   7.51222095E-001   6.86194365E-001   7.49371437E-001
   5.00000000E+001   7.82952700E-001   6.93509313E-001   7.81702411E-001
   5.50000000E+001   8.10312467E-001   6.97906678E-001   8.09465789E-001
   6.00000000E+001   8.32968931E-001   7.00599556E-001   8.32379427E-001
   6.50000000E+001   8.53915612E-001   7.02289006E-001   8.53504482E-001
   7.00000000E+001   8.70153641E-001   7.03376628E-001   8.69854849E-001
   7.50000000E+001   8.84659850E-001   7.04094770E-001   8.84440584E-001
   8.00000000E+001   8.97745927E-001   7.04580406E-001   8.97583035E-001
   8.50000000E+001   9.09356068E-001   7.04916131E-001   9.09233323E-001
   9.00000000E+001   9.19596448E-001   7.05152948E-001   9.19502663E-001
   9.50000000E+001   9.27801373E-001   7.05323092E-001   9.27728280E-001
   1.00000000E+002   9.35620578E-001   7.05447394E-001   9.35563225E-001
   1.05000000E+002   9.41834098E-001   7.05539599E-001   9.41788367E-001
   1.10000000E+002   9.47539816E-001   7.05608952E-001   9.47503067E-001
   1.15000000E+002   9.52932707E-001   7.05661784E-001   9.52903001E-001
   1.20000000E+002   9.57790607E-001   7.05702503E-001   9.57766396E-001
   1.25000000E+002   9.61841729E-001   7.05734225E-001   9.61821780E-001
   1.30000000E+002   9.65337427E-001   7.05759184E-001   9.65320871E-001
   1.35000000E+002   9.68803710E-001   7.05779002E-001   9.68789919E-001
   1.40000000E+002   9.71962910E-001   7.05794873E-001   9.71951352E-001
   1.45000000E+002   9.74712636E-001   7.05807683E-001   9.74702884E-001
   1.50000000E+002   9.76862747E-001   7.05818099E-001   9.76854447E-001
   1.55000000E+002   9.79296667E-001   7.05826627E-001   9.79289601E-001
   1.60000000E+002   9.81476725E-001   7.05833655E-001   9.81470679E-001
   1.65000000E+002   9.82822144E-001   7.05839481E-001   9.82816919E-001
   1.70000000E+002   9.84551960E-001   7.05844338E-001   9.84547446E-001
   1.75000000E+002   9.86146441E-001   7.05848409E-001   9.86142527E-001
   1.80000000E+002   9.87369040E-001   7.05851839E-001   9.87365627E-001
   1.85000000E+002   9.88492556E-001   7.05854742E-001   9.88489569E-001
   1.90000000E+002   9.89642421E-001   7.05857211E-001   9.89639801E-001
   1.95000000E+002   9.90704028E-001   7.05859319E-001   9.90701722E-001
   2.00000000E+002   9.91642567E-001   7.05861126E-001   9.91640532E-001
   2.05000000E+002   9.92383075E-001   7.05862682E-001   9.92381271E-001
   2.10000000E+002   9.93125958E-001   7.05864025E-001   9.93124356E-001
   2.15000000E+002   9.93703594E-001   7.05865190E-001   9.93702166E-001
   2.20000000E+002   9.94525243E-001   7.05866203E-001   9.94523970E-001
   2.25000000E+002   9.94952356E-001   7.05867087E-001   9.94951215E-001
   2.30000000E+002   9.95477746E-001   7.05867860E-001   9.95476723E-001
   2.35000000E+002   9.95860440E-001   7.05868539E-001   9.95859519E-001
   2.40000000E+002   9.96277584E-001   7.05869137E-001   9.96276754E-001
   2.45000000E+002   9.96765228E-001   7.05869664E-001   9.96764480E-001
