# ./jetvheto -in n3lo-fixed-order/H125-LHC13-R04-mb-475-mt-1725-xmur025-xmuf025-log.fxd -xQ 0.25 -out benchmarks-n3lo-smallR/H125-LHC13-R04-mb-475-mt-1725-xmur025-xmuf025-xQ025-NNLO+NNLLa.R0-0.5.res -scheme a -order 2 -ptmax 500.01 -fixed_order 2 -small-r -loop-mass t+b -R0 0.5
# process = H    
# collider = pp   
# rts =  13000.000
# M   =    125.000
# muR =     31.250
# muF =     31.250
# Q   =     31.250
# p   =      5.000
# include_c1_squared =   F
# loop_mass  = t+b 
# alphas(MZ) =    0.11800
# alphas(M) =    0.11264
# alphas(muR) =    0.14091
# Rjet =      0.400
# order = NNLL
# pdf name and set = PDF4LHC15_nnlo_mc.LHgrid,    0
# matching scheme = a
# total cross sections [nb] at LO, NLOdiff, NNLOdiff, N3LOdiff =     0.016156    0.025248    0.006043   -0.002471
#----------------------------------------------------------------------
# the lines that follow give the jet-veto efficiencies as a function of pt
#         pt            matched eff      resummed eff     fixed-order eff
   2.00000000E+001   4.19914109E-001   4.19598895E-001   4.14362726E-001
   2.50000000E+001   5.06454818E-001   4.79884365E-001   5.03382423E-001
   3.00000000E+001   5.76544916E-001   5.15656869E-001   5.74877333E-001
   3.50000000E+001   6.34526442E-001   5.35245623E-001   6.33647351E-001
   4.00000000E+001   6.82734356E-001   5.45575350E-001   6.82274657E-001
   4.50000000E+001   7.23328573E-001   5.51046981E-001   7.23088176E-001
   5.00000000E+001   7.57672329E-001   5.54031368E-001   7.57541843E-001
   5.50000000E+001   7.86897983E-001   5.55723590E-001   7.86825388E-001
   6.00000000E+001   8.12031406E-001   5.56722317E-001   8.11989633E-001
   6.50000000E+001   8.33744121E-001   5.57334385E-001   8.33719045E-001
   7.00000000E+001   8.52732979E-001   5.57722524E-001   8.52717321E-001
   7.50000000E+001   8.69015303E-001   5.57976285E-001   8.69004953E-001
   8.00000000E+001   8.83477881E-001   5.58146754E-001   8.83470860E-001
   8.50000000E+001   8.96215692E-001   5.58264068E-001   8.96210714E-001
   9.00000000E+001   9.07404863E-001   5.58346557E-001   9.07401203E-001
   9.50000000E+001   9.17166686E-001   5.58405689E-001   9.17163878E-001
   1.00000000E+002   9.25854158E-001   5.58448818E-001   9.25851957E-001
   1.05000000E+002   9.33642463E-001   5.58480772E-001   9.33640696E-001
   1.10000000E+002   9.40536450E-001   5.58504785E-001   9.40535003E-001
   1.15000000E+002   9.46743462E-001   5.58523065E-001   9.46742262E-001
   1.20000000E+002   9.52306693E-001   5.58537146E-001   9.52305676E-001
   1.25000000E+002   9.57222383E-001   5.58548112E-001   9.57221507E-001
   1.30000000E+002   9.61678219E-001   5.58556737E-001   9.61677464E-001
   1.35000000E+002   9.65676446E-001   5.58563584E-001   9.65675792E-001
   1.40000000E+002   9.69248560E-001   5.58569067E-001   9.69247988E-001
   1.45000000E+002   9.72542779E-001   5.58573491E-001   9.72542277E-001
   1.50000000E+002   9.75472358E-001   5.58577088E-001   9.75471914E-001
   1.55000000E+002   9.78121462E-001   5.58580032E-001   9.78121067E-001
   1.60000000E+002   9.80540252E-001   5.58582459E-001   9.80539901E-001
   1.65000000E+002   9.82722424E-001   5.58584470E-001   9.82722112E-001
   1.70000000E+002   9.84675002E-001   5.58586147E-001   9.84674723E-001
   1.75000000E+002   9.86453357E-001   5.58587552E-001   9.86453107E-001
   1.80000000E+002   9.88052897E-001   5.58588736E-001   9.88052673E-001
   1.85000000E+002   9.89486029E-001   5.58589738E-001   9.89485827E-001
   1.90000000E+002   9.90818750E-001   5.58590590E-001   9.90818567E-001
   1.95000000E+002   9.92035069E-001   5.58591318E-001   9.92034904E-001
   2.00000000E+002   9.93123081E-001   5.58591941E-001   9.93122932E-001
   2.05000000E+002   9.94130109E-001   5.58592478E-001   9.94129974E-001
   2.10000000E+002   9.95048126E-001   5.58592942E-001   9.95048004E-001
   2.15000000E+002   9.95839897E-001   5.58593344E-001   9.95839785E-001
   2.20000000E+002   9.96593003E-001   5.58593694E-001   9.96592901E-001
   2.25000000E+002   9.97271234E-001   5.58593999E-001   9.97271142E-001
   2.30000000E+002   9.97868060E-001   5.58594266E-001   9.97867975E-001
   2.35000000E+002   9.98424450E-001   5.58594500E-001   9.98424373E-001
   2.40000000E+002   9.98910849E-001   5.58594706E-001   9.98910778E-001
   2.45000000E+002   9.99350698E-001   5.58594888E-001   9.99350634E-001
