# ./jetvheto -in n3lo-fixed-order/H125-LHC13-R04-heft-xmur200-xmuf200-log.fxd -xQ 0.50 -out benchmarks-n3lo-smallR/H125-LHC13-R04-heft-xmur200-xmuf200-xQ050-N3LO+NNLLb.R0-0.5.res -scheme b -order 2 -ptmax 500.01 -fixed_order 3 -small-r -R0 0.5
# process = H    
# collider = pp   
# rts =  13000.000
# M   =    125.000
# muR =    250.000
# muF =    250.000
# Q   =     62.500
# p   =      5.000
# include_c1_squared =   F
# loop_mass  = none
# alphas(MZ) =    0.11800
# alphas(M) =    0.11264
# alphas(muR) =    0.10244
# Rjet =      0.400
# order = NNLL
# pdf name and set = PDF4LHC15_nnlo_mc.LHgrid,    0
# matching scheme = b
# total cross sections [nb] at LO, NLOdiff, NNLOdiff, N3LOdiff =     0.011138    0.014625    0.010464    0.005358
#----------------------------------------------------------------------
# the lines that follow give the jet-veto efficiencies as a function of pt
#         pt            matched eff      resummed eff     fixed-order eff
   2.00000000E+001   4.36171673E-001   5.38050880E-001   4.05581169E-001
   2.50000000E+001   5.23038060E-001   6.22320596E-001   5.03593572E-001
   3.00000000E+001   5.91784976E-001   6.82001427E-001   5.78260533E-001
   3.50000000E+001   6.48590991E-001   7.23746722E-001   6.38745828E-001
   4.00000000E+001   6.95276026E-001   7.52402816E-001   6.87811581E-001
   4.50000000E+001   7.33278382E-001   7.71567676E-001   7.27456724E-001
   5.00000000E+001   7.66632862E-001   7.83988269E-001   7.62096488E-001
   5.50000000E+001   7.93864821E-001   7.91779254E-001   7.90309877E-001
   6.00000000E+001   8.17146586E-001   7.96528471E-001   8.14374962E-001
   6.50000000E+001   8.36907399E-001   7.99366693E-001   8.34755290E-001
   7.00000000E+001   8.54913919E-001   8.01049225E-001   8.53247806E-001
   7.50000000E+001   8.69818774E-001   8.02050640E-001   8.68528249E-001
   8.00000000E+001   8.82850120E-001   8.02655286E-001   8.81847863E-001
   8.50000000E+001   8.94481770E-001   8.03028462E-001   8.93700078E-001
   9.00000000E+001   9.04483346E-001   8.03264970E-001   9.03869957E-001
   9.50000000E+001   9.13849479E-001   8.03419169E-001   9.13364896E-001
   1.00000000E+002   9.21739347E-001   8.03522606E-001   9.21353866E-001
   1.05000000E+002   9.28709593E-001   8.03593923E-001   9.28400606E-001
   1.10000000E+002   9.34775791E-001   8.03644350E-001   9.34526304E-001
   1.15000000E+002   9.40511450E-001   8.03680831E-001   9.40308524E-001
   1.20000000E+002   9.45735095E-001   8.03707768E-001   9.45568871E-001
   1.25000000E+002   9.50070981E-001   8.03728023E-001   9.49933938E-001
   1.30000000E+002   9.54209376E-001   8.03743501E-001   9.54095652E-001
   1.35000000E+002   9.57778167E-001   8.03755499E-001   9.57683216E-001
   1.40000000E+002   9.61348611E-001   8.03764919E-001   9.61268867E-001
   1.45000000E+002   9.64192340E-001   8.03772398E-001   9.64125014E-001
   1.50000000E+002   9.66982542E-001   8.03778397E-001   9.66925398E-001
   1.55000000E+002   9.69477411E-001   8.03783254E-001   9.69428673E-001
   1.60000000E+002   9.71674698E-001   8.03787218E-001   9.71632933E-001
   1.65000000E+002   9.73580752E-001   8.03790479E-001   9.73544807E-001
   1.70000000E+002   9.75603574E-001   8.03793179E-001   9.75572505E-001
   1.75000000E+002   9.77261744E-001   8.03795430E-001   9.77234787E-001
   1.80000000E+002   9.79049942E-001   8.03797318E-001   9.79026459E-001
   1.85000000E+002   9.80354790E-001   8.03798909E-001   9.80334263E-001
   1.90000000E+002   9.81688292E-001   8.03800257E-001   9.81670288E-001
   1.95000000E+002   9.82877832E-001   8.03801405E-001   9.82861989E-001
   2.00000000E+002   9.84173819E-001   8.03802387E-001   9.84159832E-001
   2.05000000E+002   9.85087610E-001   8.03803230E-001   9.85075228E-001
   2.10000000E+002   9.85961304E-001   8.03803957E-001   9.85950311E-001
   2.15000000E+002   9.86901621E-001   8.03804586E-001   9.86891834E-001
   2.20000000E+002   9.87774626E-001   8.03805132E-001   9.87765890E-001
   2.25000000E+002   9.88468993E-001   8.03805608E-001   9.88461177E-001
   2.30000000E+002   9.89137175E-001   8.03806025E-001   9.89130165E-001
   2.35000000E+002   9.89826081E-001   8.03806390E-001   9.89819779E-001
   2.40000000E+002   9.90438100E-001   8.03806711E-001   9.90432423E-001
   2.45000000E+002   9.91028944E-001   8.03806994E-001   9.91023818E-001
