# ./jetvheto -in n3lo-fixed-order/H125-LHC13-R04-heft-xmur050-xmuf100-log.fxd -xQ 0.50 -out benchmarks-n3lo-smallR/H125-LHC13-R04-heft-xmur050-xmuf100-xQ050-NNLO+NNLLb.R0-1.0.res -scheme b -order 2 -ptmax 500.01 -fixed_order 2 -small-r -R0 1.0
# process = H    
# collider = pp   
# rts =  13000.000
# M   =    125.000
# muR =     62.500
# muF =    125.000
# Q   =     62.500
# p   =      5.000
# include_c1_squared =   F
# loop_mass  = none
# alphas(MZ) =    0.11800
# alphas(M) =    0.11264
# alphas(muR) =    0.12516
# Rjet =      0.400
# order = NNLL
# pdf name and set = PDF4LHC15_nnlo_mc.LHgrid,    0
# matching scheme = b
# total cross sections [nb] at LO, NLOdiff, NNLOdiff, N3LOdiff =     0.015984    0.019551    0.008553    0.000949
#----------------------------------------------------------------------
# the lines that follow give the jet-veto efficiencies as a function of pt
#         pt            matched eff      resummed eff     fixed-order eff
   2.00000000E+001   4.26479298E-001   5.11731613E-001   3.30722344E-001
   2.50000000E+001   5.08721592E-001   5.87715473E-001   4.39170235E-001
   3.00000000E+001   5.75366796E-001   6.40796889E-001   5.23501586E-001
   3.50000000E+001   6.29842072E-001   6.77408643E-001   5.90556147E-001
   4.00000000E+001   6.75162530E-001   7.02142504E-001   6.45199559E-001
   4.50000000E+001   7.13069822E-001   7.18371135E-001   6.90187147E-001
   5.00000000E+001   7.45266923E-001   7.28640299E-001   7.27824300E-001
   5.50000000E+001   7.72796623E-001   7.34884249E-001   7.59540506E-001
   6.00000000E+001   7.96757546E-001   7.38537919E-001   7.86708386E-001
   6.50000000E+001   8.17707253E-001   7.40608389E-001   8.10090885E-001
   7.00000000E+001   8.35991567E-001   7.41754810E-001   8.30207918E-001
   7.50000000E+001   8.52156957E-001   7.42380983E-001   8.47745690E-001
   8.00000000E+001   8.66474440E-001   7.42721186E-001   8.63089412E-001
   8.50000000E+001   8.79076144E-001   7.42906073E-001   8.76459376E-001
   9.00000000E+001   8.90397766E-001   7.43006926E-001   8.88358331E-001
   9.50000000E+001   9.00401834E-001   7.43062190E-001   8.98798938E-001
   1.00000000E+002   9.09333060E-001   7.43092559E-001   9.08062455E-001
   1.05000000E+002   9.17331369E-001   7.43109227E-001   9.16315690E-001
   1.10000000E+002   9.24444937E-001   7.43118294E-001   9.23626436E-001
   1.15000000E+002   9.30890303E-001   7.43123118E-001   9.30225524E-001
   1.20000000E+002   9.36647523E-001   7.43125569E-001   9.36103577E-001
   1.25000000E+002   9.41855586E-001   7.43126694E-001   9.41407389E-001
   1.30000000E+002   9.46543591E-001   7.43127088E-001   9.46171829E-001
   1.35000000E+002   9.50819882E-001   7.43127088E-001   9.50509572E-001
   1.40000000E+002   9.54618833E-001   7.43126885E-001   9.54358286E-001
   1.45000000E+002   9.58161491E-001   7.43126589E-001   9.57941497E-001
   1.50000000E+002   9.61290638E-001   7.43126261E-001   9.61103910E-001
   1.55000000E+002   9.64167247E-001   7.43125933E-001   9.64007962E-001
   1.60000000E+002   9.66818645E-001   7.43125623E-001   9.66682128E-001
   1.65000000E+002   9.69210266E-001   7.43125338E-001   9.69092742E-001
   1.70000000E+002   9.71430087E-001   7.43125081E-001   9.71328485E-001
   1.75000000E+002   9.73423554E-001   7.43124852E-001   9.73335368E-001
   1.80000000E+002   9.75280127E-001   7.43124650E-001   9.75203293E-001
   1.85000000E+002   9.76959805E-001   7.43124472E-001   9.76892621E-001
   1.90000000E+002   9.78514928E-001   7.43124316E-001   9.78455982E-001
   1.95000000E+002   9.79977192E-001   7.43124179E-001   9.79925303E-001
   2.00000000E+002   9.81304161E-001   7.43124058E-001   9.81258343E-001
   2.05000000E+002   9.82540666E-001   7.43123953E-001   9.82500089E-001
   2.10000000E+002   9.83668229E-001   7.43123860E-001   9.83632192E-001
   2.15000000E+002   9.84691488E-001   7.43123779E-001   9.84659397E-001
   2.20000000E+002   9.85661165E-001   7.43123708E-001   9.85632513E-001
   2.25000000E+002   9.86551824E-001   7.43123645E-001   9.86526181E-001
   2.30000000E+002   9.87381223E-001   7.43123589E-001   9.87358217E-001
   2.35000000E+002   9.88173122E-001   7.43123540E-001   9.88152435E-001
   2.40000000E+002   9.88881481E-001   7.43123496E-001   9.88862839E-001
   2.45000000E+002   9.89553753E-001   7.43123457E-001   9.89536919E-001
