# ./jetvheto -in n3lo-fixed-order/H125-LHC13-R04-heft-xmur100-xmuf100-log.fxd -xQ 1.00 -out benchmarks-n3lo-smallR/H125-LHC13-R04-heft-xmur100-xmuf100-xQ100-NNLO+NNLLa.R0-1.0.res -scheme a -order 2 -ptmax 500.01 -fixed_order 2 -small-r -R0 1.0
# process = H    
# collider = pp   
# rts =  13000.000
# M   =    125.000
# muR =    125.000
# muF =    125.000
# Q   =    125.000
# p   =      5.000
# include_c1_squared =   F
# loop_mass  = none
# alphas(MZ) =    0.11800
# alphas(M) =    0.11264
# alphas(muR) =    0.11264
# Rjet =      0.400
# order = NNLL
# pdf name and set = PDF4LHC15_nnlo_mc.LHgrid,    0
# matching scheme = a
# total cross sections [nb] at LO, NLOdiff, NNLOdiff, N3LOdiff =     0.012945    0.016716    0.010146    0.003834
#----------------------------------------------------------------------
# the lines that follow give the jet-veto efficiencies as a function of pt
#         pt            matched eff      resummed eff     fixed-order eff
   2.00000000E+001   5.30426312E-001   5.89387693E-001   5.03121755E-001
   2.50000000E+001   6.23009905E-001   6.77579233E-001   5.84489186E-001
   3.00000000E+001   6.94685575E-001   7.39502929E-001   6.47024325E-001
   3.50000000E+001   7.50652923E-001   7.82656526E-001   6.96432698E-001
   4.00000000E+001   7.94951266E-001   8.12270366E-001   7.36537087E-001
   4.50000000E+001   8.30088730E-001   8.31979938E-001   7.69498888E-001
   5.00000000E+001   8.58195770E-001   8.44370422E-001   7.97057559E-001
   5.50000000E+001   8.80696709E-001   8.51320356E-001   8.20296043E-001
   6.00000000E+001   8.98863022E-001   8.54208124E-001   8.40179538E-001
   6.50000000E+001   9.13530383E-001   8.54066542E-001   8.57311575E-001
   7.00000000E+001   9.25266123E-001   8.51691490E-001   8.72069843E-001
   7.50000000E+001   9.34752505E-001   8.47704769E-001   8.84956099E-001
   8.00000000E+001   9.42396950E-001   8.42602075E-001   8.96237121E-001
   8.50000000E+001   9.48502948E-001   8.36782177E-001   9.06102675E-001
   9.00000000E+001   9.53514988E-001   8.30567808E-001   9.14880120E-001
   9.50000000E+001   9.57538379E-001   8.24216399E-001   9.22604114E-001
   1.00000000E+002   9.60844569E-001   8.17931775E-001   9.29473021E-001
   1.05000000E+002   9.63602533E-001   8.11869863E-001   9.35603161E-001
   1.10000000E+002   9.65905664E-001   8.06143607E-001   9.41053390E-001
   1.15000000E+002   9.67934928E-001   8.00829111E-001   9.45975962E-001
   1.20000000E+002   9.69708103E-001   7.95969771E-001   9.50380922E-001
   1.25000000E+002   9.71314331E-001   7.91582296E-001   9.54354081E-001
   1.30000000E+002   9.72783527E-001   7.87662524E-001   9.57933958E-001
   1.35000000E+002   9.74178505E-001   7.84191027E-001   9.61195880E-001
   1.40000000E+002   9.75449789E-001   7.81138160E-001   9.64110237E-001
   1.45000000E+002   9.76714431E-001   7.78468319E-001   9.66811003E-001
   1.50000000E+002   9.77866973E-001   7.76143313E-001   9.69216654E-001
   1.55000000E+002   9.78986692E-001   7.74124792E-001   9.71425199E-001
   1.60000000E+002   9.80076166E-001   7.72375929E-001   9.73459094E-001
   1.65000000E+002   9.81100117E-001   7.70862513E-001   9.75301855E-001
   1.70000000E+002   9.82099736E-001   7.69553478E-001   9.77010596E-001
   1.75000000E+002   9.83028783E-001   7.68421097E-001   9.78554343E-001
   1.80000000E+002   9.83932386E-001   7.67440947E-001   9.79990696E-001
   1.85000000E+002   9.84775667E-001   7.66591727E-001   9.81296426E-001
   1.90000000E+002   9.85581417E-001   7.65854992E-001   9.82503927E-001
   1.95000000E+002   9.86366290E-001   7.65214860E-001   9.83638287E-001
   2.00000000E+002   9.87098491E-001   7.64657705E-001   9.84675207E-001
   2.05000000E+002   9.87796328E-001   7.64171865E-001   9.85639085E-001
   2.10000000E+002   9.88447461E-001   7.63747381E-001   9.86523019E-001
   2.15000000E+002   9.89051303E-001   7.63375748E-001   9.87330981E-001
   2.20000000E+002   9.89633308E-001   7.63049709E-001   9.88092219E-001
   2.25000000E+002   9.90178301E-001   7.62763070E-001   9.88794983E-001
   2.30000000E+002   9.90695237E-001   7.62510537E-001   9.89451061E-001
   2.35000000E+002   9.91197045E-001   7.62287584E-001   9.90075806E-001
   2.40000000E+002   9.91653182E-001   7.62090335E-001   9.90640855E-001
   2.45000000E+002   9.92090660E-001   7.61915467E-001   9.91174955E-001
