# ./jetvheto -in n3lo-fixed-order/H125-LHC13-R04-mb-0-mt-1725-xmur100-xmuf100-log.fxd -xQ 0.03125 -out benchmarks-n3lo-smallR/H125-LHC13-R04-mb-0-mt-1725-xmur100-xmuf100-xQ03125-N3LO+NNLLb.R0-0.5.res -scheme b -order 2 -ptmax 500.01 -small-r -fixed_order 3 -loop-mass t -R0 0.5
# process = H    
# collider = pp   
# rts =  13000.000
# M   =    125.000
# muR =    125.000
# muF =    125.000
# Q   =      3.906
# p   =      5.000
# include_c1_squared =   F
# loop_mass  = t   
# alphas(MZ) =    0.11800
# alphas(M) =    0.11264
# alphas(muR) =    0.11264
# Rjet =      0.400
# order = NNLL
# pdf name and set = PDF4LHC15_nnlo_mc.LHgrid,    0
# matching scheme = b
# total cross sections [nb] at LO, NLOdiff, NNLOdiff, N3LOdiff =     0.013801    0.017514    0.010146    0.003834
#----------------------------------------------------------------------
# the lines that follow give the jet-veto efficiencies as a function of pt
#         pt            matched eff      resummed eff     fixed-order eff
   2.00000000E+001   4.21601980E-001  -6.30401456E-002   4.21593782E-001
   2.50000000E+001   5.13962938E-001  -6.30418808E-002   5.13960990E-001
   3.00000000E+001   5.91016073E-001  -6.30423867E-002   5.91015610E-001
   3.50000000E+001   6.50646022E-001  -6.30425693E-002   6.50645918E-001
   4.00000000E+001   6.98836991E-001  -6.30426459E-002   6.98836983E-001
   4.50000000E+001   7.37928042E-001  -6.30426818E-002   7.37928057E-001
   5.00000000E+001   7.71030453E-001  -6.30427002E-002   7.71030473E-001
   5.50000000E+001   7.99275621E-001  -6.30427102E-002   7.99275639E-001
   6.00000000E+001   8.23059667E-001  -6.30427160E-002   8.23059681E-001
   6.50000000E+001   8.44243746E-001  -6.30427195E-002   8.44243758E-001
   7.00000000E+001   8.62070810E-001  -6.30427217E-002   8.62070819E-001
   7.50000000E+001   8.76925457E-001  -6.30427231E-002   8.76925464E-001
   8.00000000E+001   8.89967142E-001  -6.30427241E-002   8.89967148E-001
   8.50000000E+001   9.01728483E-001  -6.30427247E-002   9.01728487E-001
   9.00000000E+001   9.11747755E-001  -6.30427252E-002   9.11747759E-001
   9.50000000E+001   9.20909610E-001  -6.30427255E-002   9.20909613E-001
   1.00000000E+002   9.28579535E-001  -6.30427258E-002   9.28579537E-001
   1.05000000E+002   9.35454624E-001  -6.30427259E-002   9.35454626E-001
   1.10000000E+002   9.41628667E-001  -6.30427261E-002   9.41628668E-001
   1.15000000E+002   9.47177132E-001  -6.30427262E-002   9.47177133E-001
   1.20000000E+002   9.51996885E-001  -6.30427263E-002   9.51996886E-001
   1.25000000E+002   9.56173933E-001  -6.30427263E-002   9.56173934E-001
   1.30000000E+002   9.60356304E-001  -6.30427264E-002   9.60356305E-001
   1.35000000E+002   9.64008439E-001  -6.30427264E-002   9.64008440E-001
   1.40000000E+002   9.67091995E-001  -6.30427264E-002   9.67091995E-001
   1.45000000E+002   9.70034899E-001  -6.30427265E-002   9.70034899E-001
   1.50000000E+002   9.72527497E-001  -6.30427265E-002   9.72527497E-001
   1.55000000E+002   9.75212455E-001  -6.30427265E-002   9.75212455E-001
   1.60000000E+002   9.77041107E-001  -6.30427265E-002   9.77041107E-001
   1.65000000E+002   9.78998050E-001  -6.30427265E-002   9.78998050E-001
   1.70000000E+002   9.80709596E-001  -6.30427265E-002   9.80709596E-001
   1.75000000E+002   9.82370623E-001  -6.30427265E-002   9.82370623E-001
   1.80000000E+002   9.83895197E-001  -6.30427265E-002   9.83895197E-001
   1.85000000E+002   9.85264523E-001  -6.30427266E-002   9.85264523E-001
   1.90000000E+002   9.86225466E-001  -6.30427266E-002   9.86225466E-001
   1.95000000E+002   9.87456496E-001  -6.30427266E-002   9.87456496E-001
   2.00000000E+002   9.88501106E-001  -6.30427266E-002   9.88501106E-001
   2.05000000E+002   9.89399966E-001  -6.30427266E-002   9.89399966E-001
   2.10000000E+002   9.90204115E-001  -6.30427266E-002   9.90204115E-001
   2.15000000E+002   9.91095719E-001  -6.30427266E-002   9.91095719E-001
   2.20000000E+002   9.91741805E-001  -6.30427266E-002   9.91741805E-001
   2.25000000E+002   9.92422310E-001  -6.30427266E-002   9.92422310E-001
   2.30000000E+002   9.93056602E-001  -6.30427266E-002   9.93056602E-001
   2.35000000E+002   9.93643503E-001  -6.30427266E-002   9.93643503E-001
   2.40000000E+002   9.94041766E-001  -6.30427266E-002   9.94041766E-001
   2.45000000E+002   9.94575393E-001  -6.30427266E-002   9.94575393E-001
