# ./jetvheto -in n3lo-fixed-order/H125-LHC13-R04-mb-0-mt-1725-xmur100-xmuf050-log.fxd -xQ 0.0625 -out benchmarks-n3lo-smallR/H125-LHC13-R04-mb-0-mt-1725-xmur100-xmuf050-xQ0625-NNLO+NNLLa.R0-2.0.res -scheme a -order 2 -ptmax 500.01 -small-r -fixed_order 2 -loop-mass t -R0 2.0
# process = H    
# collider = pp   
# rts =  13000.000
# M   =    125.000
# muR =    125.000
# muF =     62.500
# Q   =      7.812
# p   =      5.000
# include_c1_squared =   F
# loop_mass  = t   
# alphas(MZ) =    0.11800
# alphas(M) =    0.11264
# alphas(muR) =    0.11264
# Rjet =      0.400
# order = NNLL
# pdf name and set = PDF4LHC15_nnlo_mc.LHgrid,    0
# matching scheme = a
# total cross sections [nb] at LO, NLOdiff, NNLOdiff, N3LOdiff =     0.012997    0.017347    0.010424    0.004163
#----------------------------------------------------------------------
# the lines that follow give the jet-veto efficiencies as a function of pt
#         pt            matched eff      resummed eff     fixed-order eff
   2.00000000E+001   5.05211229E-001   2.76038544E-001   5.05383673E-001
   2.50000000E+001   5.86508147E-001   2.76548873E-001   5.86599989E-001
   3.00000000E+001   6.48953537E-001   2.76698321E-001   6.49001744E-001
   3.50000000E+001   6.98514159E-001   2.76752353E-001   6.98540679E-001
   4.00000000E+001   7.38643077E-001   2.76775026E-001   7.38658449E-001
   4.50000000E+001   7.71711531E-001   2.76785655E-001   7.71720875E-001
   5.00000000E+001   7.99603759E-001   2.76791082E-001   7.99609682E-001
   5.50000000E+001   8.22858890E-001   2.76794049E-001   8.22862779E-001
   6.00000000E+001   8.42838184E-001   2.76795763E-001   8.42840818E-001
   6.50000000E+001   8.60080492E-001   2.76796801E-001   8.60082325E-001
   7.00000000E+001   8.75009028E-001   2.76797454E-001   8.75010333E-001
   7.50000000E+001   8.87947015E-001   2.76797878E-001   8.87947964E-001
   8.00000000E+001   8.99322583E-001   2.76798162E-001   8.99323286E-001
   8.50000000E+001   9.09364321E-001   2.76798358E-001   9.09364851E-001
   9.00000000E+001   9.18224340E-001   2.76798495E-001   9.18224745E-001
   9.50000000E+001   9.26016340E-001   2.76798593E-001   9.26016654E-001
   1.00000000E+002   9.33030276E-001   2.76798664E-001   9.33030521E-001
   1.05000000E+002   9.39186341E-001   2.76798717E-001   9.39186536E-001
   1.10000000E+002   9.44698889E-001   2.76798757E-001   9.44699045E-001
   1.15000000E+002   9.49662320E-001   2.76798787E-001   9.49662445E-001
   1.20000000E+002   9.54138398E-001   2.76798811E-001   9.54138501E-001
   1.25000000E+002   9.58212714E-001   2.76798829E-001   9.58212797E-001
   1.30000000E+002   9.61824990E-001   2.76798843E-001   9.61825060E-001
   1.35000000E+002   9.65086842E-001   2.76798854E-001   9.65086900E-001
   1.40000000E+002   9.68072830E-001   2.76798863E-001   9.68072879E-001
   1.45000000E+002   9.70799852E-001   2.76798871E-001   9.70799893E-001
   1.50000000E+002   9.73296956E-001   2.76798877E-001   9.73296991E-001
   1.55000000E+002   9.75547832E-001   2.76798882E-001   9.75547861E-001
   1.60000000E+002   9.77598991E-001   2.76798886E-001   9.77599016E-001
   1.65000000E+002   9.79459754E-001   2.76798889E-001   9.79459776E-001
   1.70000000E+002   9.81171667E-001   2.76798892E-001   9.81171685E-001
   1.75000000E+002   9.82724279E-001   2.76798894E-001   9.82724296E-001
   1.80000000E+002   9.84133476E-001   2.76798896E-001   9.84133490E-001
   1.85000000E+002   9.85440457E-001   2.76798898E-001   9.85440470E-001
   1.90000000E+002   9.86635768E-001   2.76798899E-001   9.86635778E-001
   1.95000000E+002   9.87732118E-001   2.76798900E-001   9.87732128E-001
   2.00000000E+002   9.88738187E-001   2.76798901E-001   9.88738196E-001
   2.05000000E+002   9.89659523E-001   2.76798902E-001   9.89659531E-001
   2.10000000E+002   9.90491293E-001   2.76798903E-001   9.90491300E-001
   2.15000000E+002   9.91276177E-001   2.76798904E-001   9.91276183E-001
   2.20000000E+002   9.91994827E-001   2.76798904E-001   9.91994832E-001
   2.25000000E+002   9.92641610E-001   2.76798905E-001   9.92641615E-001
   2.30000000E+002   9.93267074E-001   2.76798905E-001   9.93267078E-001
   2.35000000E+002   9.93813066E-001   2.76798905E-001   9.93813070E-001
   2.40000000E+002   9.94329806E-001   2.76798906E-001   9.94329809E-001
   2.45000000E+002   9.94802787E-001   2.76798906E-001   9.94802790E-001
