# ./jetvheto -in n3lo-fixed-order/H125-LHC13-R04-mb-475-mt-1725-xmur050-xmuf050-log.fxd -xQ 0.75 -out benchmarks-n3lo-smallR/H125-LHC13-R04-mb-475-mt-1725-xmur050-xmuf050-xQ075-NNLO+NNLLa.res -scheme a -order 2 -ptmax 500.01 -fixed_order 2 -loop-mass t+b
# process = H    
# collider = pp   
# rts =  13000.000
# M   =    125.000
# muR =     62.500
# muF =     62.500
# Q   =     93.750
# p   =      5.000
# include_c1_squared =   F
# loop_mass  = t+b 
# alphas(MZ) =    0.11800
# alphas(M) =    0.11264
# alphas(muR) =    0.12516
# Rjet =      0.400
# order = NNLL
# pdf name and set = PDF4LHC15_nnlo_mc.LHgrid,    0
# matching scheme = a
# total cross sections [nb] at LO, NLOdiff, NNLOdiff, N3LOdiff =     0.014147    0.020254    0.008998    0.001413
#----------------------------------------------------------------------
# the lines that follow give the jet-veto efficiencies as a function of pt
#         pt            matched eff      resummed eff     fixed-order eff
   2.00000000E+001   4.80175038E-001   5.12794823E-001   4.51585809E-001
   2.50000000E+001   5.70311850E-001   5.90903454E-001   5.37845647E-001
   3.00000000E+001   6.41227559E-001   6.45707583E-001   6.05618957E-001
   3.50000000E+001   6.97549089E-001   6.83861272E-001   6.60103954E-001
   4.00000000E+001   7.42526240E-001   7.09996185E-001   7.04623301E-001
   4.50000000E+001   7.79031774E-001   7.27376170E-001   7.41826274E-001
   5.00000000E+001   8.08731123E-001   7.38340487E-001   7.73153273E-001
   5.50000000E+001   8.32975779E-001   7.44614284E-001   7.99700298E-001
   6.00000000E+001   8.52978925E-001   7.47488989E-001   8.22453602E-001
   6.50000000E+001   8.69582182E-001   7.47961618E-001   8.42063586E-001
   7.00000000E+001   8.83606585E-001   7.46812894E-001   8.59177351E-001
   7.50000000E+001   8.95370913E-001   7.44652563E-001   8.73986041E-001
   8.00000000E+001   9.05531239E-001   7.41948553E-001   8.87031290E-001
   8.50000000E+001   9.14408563E-001   7.39044913E-001   8.98561694E-001
   9.00000000E+001   9.22141976E-001   7.36179223E-001   9.08676257E-001
   9.50000000E+001   9.28960277E-001   7.33499815E-001   9.17587048E-001
   1.00000000E+002   9.35127505E-001   7.31087252E-001   9.25559652E-001
   1.05000000E+002   9.40671449E-001   7.28972741E-001   9.32641906E-001
   1.10000000E+002   9.45671767E-001   7.27154947E-001   9.38939368E-001
   1.15000000E+002   9.50258659E-001   7.25613390E-001   9.44611611E-001
   1.20000000E+002   9.54428865E-001   7.24318162E-001   9.49685968E-001
   1.25000000E+002   9.58288801E-001   7.23236267E-001   9.54296709E-001
   1.30000000E+002   9.61763991E-001   7.22335626E-001   9.58395322E-001
   1.35000000E+002   9.64956406E-001   7.21586956E-001   9.62105002E-001
   1.40000000E+002   9.67904067E-001   7.20964583E-001   9.65482383E-001
   1.45000000E+002   9.70588255E-001   7.20446612E-001   9.68524408E-001
   1.50000000E+002   9.73075669E-001   7.20014693E-001   9.71310382E-001
   1.55000000E+002   9.75347062E-001   7.19653629E-001   9.73831721E-001
   1.60000000E+002   9.77424445E-001   7.19350917E-001   9.76118993E-001
   1.65000000E+002   9.79314483E-001   7.19096323E-001   9.78185892E-001
   1.70000000E+002   9.81049149E-001   7.18881483E-001   9.80070053E-001
   1.75000000E+002   9.82667230E-001   7.18699567E-001   9.81814911E-001
   1.80000000E+002   9.84119156E-001   7.18544995E-001   9.83374805E-001
   1.85000000E+002   9.85476670E-001   7.18413202E-001   9.84824510E-001
   1.90000000E+002   9.86718279E-001   7.18300447E-001   9.86145135E-001
   1.95000000E+002   9.87852543E-001   7.18203652E-001   9.87347351E-001
   2.00000000E+002   9.88890133E-001   7.18120286E-001   9.88443563E-001
   2.05000000E+002   9.89851245E-001   7.18048253E-001   9.89455399E-001
   2.10000000E+002   9.90710520E-001   7.17985818E-001   9.90358717E-001
   2.15000000E+002   9.91530428E-001   7.17931538E-001   9.91216951E-001
   2.20000000E+002   9.92284497E-001   7.17884208E-001   9.92004483E-001
   2.25000000E+002   9.92947640E-001   7.17842822E-001   9.92696938E-001
   2.30000000E+002   9.93598625E-001   7.17806531E-001   9.93373635E-001
   2.35000000E+002   9.94166029E-001   7.17774626E-001   9.93963683E-001
   2.40000000E+002   9.94699190E-001   7.17746502E-001   9.94516819E-001
   2.45000000E+002   9.95180345E-001   7.17721652E-001   9.95015643E-001
