# ./jetvheto -in n3lo-fixed-order/H125-LHC13-R04-mb-475-mt-1725-xmur200-xmuf100-log.fxd -xQ 0.5 -out benchmarks-n3lo-smallR/H125-LHC13-R04-mb-475-mt-1725-xmur200-xmuf100-xQ050-NNLO+NNLLb.R0-0.5.res -scheme b -order 2 -ptmax 500.01 -fixed_order 2 -small-r -loop-mass t+b -R0 0.5
# process = H    
# collider = pp   
# rts =  13000.000
# M   =    125.000
# muR =    250.000
# muF =    125.000
# Q   =     62.500
# p   =      5.000
# include_c1_squared =   F
# loop_mass  = t+b 
# alphas(MZ) =    0.11800
# alphas(M) =    0.11264
# alphas(muR) =    0.10244
# Rjet =      0.400
# order = NNLL
# pdf name and set = PDF4LHC15_nnlo_mc.LHgrid,    0
# matching scheme = b
# total cross sections [nb] at LO, NLOdiff, NNLOdiff, N3LOdiff =     0.010243    0.014468    0.010526    0.005600
#----------------------------------------------------------------------
# the lines that follow give the jet-veto efficiencies as a function of pt
#         pt            matched eff      resummed eff     fixed-order eff
   2.00000000E+001   3.97536113E-001   5.12945832E-001   3.28991553E-001
   2.50000000E+001   4.82453883E-001   5.97032511E-001   4.37913320E-001
   3.00000000E+001   5.52277425E-001   6.57243790E-001   5.21523223E-001
   3.50000000E+001   6.10322654E-001   6.99837971E-001   5.88073721E-001
   4.00000000E+001   6.58579698E-001   7.29442295E-001   6.41967052E-001
   4.50000000E+001   6.99176616E-001   7.49536585E-001   6.86538953E-001
   5.00000000E+001   7.33611997E-001   7.62799713E-001   7.23921373E-001
   5.50000000E+001   7.62941145E-001   7.71308671E-001   7.55501832E-001
   6.00000000E+001   7.88328126E-001   7.76640916E-001   7.82629750E-001
   6.50000000E+001   8.10394441E-001   7.79935957E-001   8.06038024E-001
   7.00000000E+001   8.29639221E-001   7.81967099E-001   8.26309424E-001
   7.50000000E+001   8.46514616E-001   7.83230077E-001   8.43964512E-001
   8.00000000E+001   8.61500852E-001   7.84029267E-001   8.59539380E-001
   8.50000000E+001   8.74679232E-001   7.84546702E-001   8.73161527E-001
   9.00000000E+001   8.86497737E-001   7.84890383E-001   8.85315039E-001
   9.50000000E+001   8.96951875E-001   7.85124632E-001   8.96023065E-001
   1.00000000E+002   9.06295934E-001   7.85288283E-001   9.05560581E-001
   1.05000000E+002   9.14707743E-001   7.85405245E-001   9.14120778E-001
   1.10000000E+002   9.22150999E-001   7.85490576E-001   9.21678769E-001
   1.15000000E+002   9.28920435E-001   7.85553984E-001   9.28537545E-001
   1.20000000E+002   9.34925951E-001   7.85601879E-001   9.34613214E-001
   1.25000000E+002   9.40440848E-001   7.85638586E-001   9.40183574E-001
   1.30000000E+002   9.45406365E-001   7.85667087E-001   9.45193299E-001
   1.35000000E+002   9.49923363E-001   7.85689475E-001   9.49745786E-001
   1.40000000E+002   9.53991940E-001   7.85707247E-001   9.53843045E-001
   1.45000000E+002   9.57746636E-001   7.85721488E-001   9.57621084E-001
   1.50000000E+002   9.61114770E-001   7.85733000E-001   9.61008331E-001
   1.55000000E+002   9.64232868E-001   7.85742379E-001   9.64142171E-001
   1.60000000E+002   9.67047890E-001   7.85750077E-001   9.66970244E-001
   1.65000000E+002   9.69630476E-001   7.85756436E-001   9.69563698E-001
   1.70000000E+002   9.71996749E-001   7.85761724E-001   9.71939074E-001
   1.75000000E+002   9.74141945E-001   7.85766145E-001   9.74091928E-001
   1.80000000E+002   9.76114046E-001   7.85769862E-001   9.76070506E-001
   1.85000000E+002   9.77921649E-001   7.85773003E-001   9.77883606E-001
   1.90000000E+002   9.79584082E-001   7.85775670E-001   9.79550728E-001
   1.95000000E+002   9.81134054E-001   7.85777945E-001   9.81104714E-001
   2.00000000E+002   9.82541650E-001   7.85779893E-001   9.82515760E-001
   2.05000000E+002   9.83847922E-001   7.85781568E-001   9.83825007E-001
   2.10000000E+002   9.85043293E-001   7.85783014E-001   9.85022954E-001
   2.15000000E+002   9.86123637E-001   7.85784266E-001   9.86105535E-001
   2.20000000E+002   9.87139993E-001   7.85785355E-001   9.87123839E-001
   2.25000000E+002   9.88071520E-001   7.85786304E-001   9.88057069E-001
   2.30000000E+002   9.88930800E-001   7.85787135E-001   9.88917842E-001
   2.35000000E+002   9.89731918E-001   7.85787863E-001   9.89720271E-001
   2.40000000E+002   9.90455808E-001   7.85788504E-001   9.90445317E-001
   2.45000000E+002   9.91140926E-001   7.85789070E-001   9.91131456E-001
