# python build-Q2-histos.py --mtQ1file ../../JetVHeto/benchmarks-n3lo-smallR/H125-LHC13-R04-mb-0-mt-1725-xmur100-xmuf050-xQ050-N3LO+NNLLb.R0-1.0.res --mtQ2file ../../JetVHeto/benchmarks-n3lo-smallR/H125-LHC13-R04-mb-0-mt-1725-xmur100-xmuf050-xQ025-N3LO+NNLLb.R0-1.0.res --mtmbQ2file ../../JetVHeto/benchmarks-n3lo-smallR/H125-LHC13-R04-mb-475-mt-1725-xmur100-xmuf050-xQ025-N3LO+NNLLb.R0-1.0.res
# process = H    
# collider = pp   
# rts =  13000.000
# M   =    125.000
# muR =    125.000
# muF =     62.500
# Q1  =  62.500; Q2  =  31.250
# p   =      5.000
# include_c1_squared =   F
# loop_mass  = t+b 
# alphas(MZ) =    0.11800
# alphas(M) =    0.11264
# alphas(muR) =    0.11264
# Rjet =      0.400
# order = NNLL
# pdf name and set = PDF4LHC15_nnlo_mc.LHgrid,    0
# matching scheme = b
# total cross sections [nb] at LO, NLOdiff, NNLOdiff, N3LOdiff =     0.011575    0.016866    0.010424    0.004163
#----------------------------------------------------------------------
# the lines that follow give the jet-veto efficiencies as a function of pt
#         pt            matched eff      resummed eff     fixed-order eff
20.0 0.42007840915 0.484773458588 0.395043602
25.0 0.506747212721 0.566860699815 0.488534588
30.0 0.579532314774 0.626566442847 0.566104441
35.0 0.638540395269 0.669512399484 0.62811229
40.0 0.685606352098 0.699802125643 0.677231454
45.0 0.726342776586 0.720589665836 0.719705835
50.0 0.759708596489 0.734423294251 0.754443972
55.0 0.788512631731 0.743360439851 0.784394199
60.0 0.812651951314 0.748999900924 0.809449218
65.0 0.834456552852 0.752508528348 0.831989521
70.0 0.852214573515 0.754686149136 0.850311618
75.0 0.867958101413 0.756049484049 0.866492063
80.0 0.88210838433 0.75691788665 0.880975853
85.0 0.894710214644 0.757483564052 0.893830869
90.0 0.905799507293 0.757861415966 0.905112243
95.0 0.915067294176 0.758120267523 0.914525864
100.0 0.923684531972 0.758301904116 0.923254849
105.0 0.930923833448 0.758432207787 0.930580037
110.0 0.937468824836 0.758527569206 0.937191662
115.0 0.943565438309 0.75859861308 0.943340381
120.0 0.949030340775 0.758652391384 0.948846269
125.0 0.953753733231 0.758693680325 0.953602088
130.0 0.957904944028 0.758725783181 0.957779208
135.0 0.961877386176 0.758751030494 0.96177251
140.0 0.9654977979 0.758771091285 0.965409802
145.0 0.968679829509 0.758787180733 0.968605581
150.0 0.971341869201 0.75880019424 0.971278869
155.0 0.974102754421 0.758810802443 0.974049059
160.0 0.976587094777 0.758819513158 0.97654111
165.0 0.978403955621 0.75882671262 0.978364382
170.0 0.980396704073 0.758832699452 0.980362517
175.0 0.982260837482 0.758837707332 0.982231187
180.0 0.983782947479 0.758841917524 0.983757129
185.0 0.985192647844 0.758845478273 0.985170084
190.0 0.986561348421 0.758848499675 0.986541564
195.0 0.987818014805 0.758851077517 0.98780061
200.0 0.988941785341 0.758853285921 0.988926426
205.0 0.989896942774 0.758855186569 0.989883347
210.0 0.990806193159 0.75885682583 0.990794127
215.0 0.991583153079 0.7588582459 0.991572413
220.0 0.992500172164 0.758859479707 0.992490589
225.0 0.99310071644 0.75886055709 0.993092144
230.0 0.993756860024 0.758861498627 0.993749172
235.0 0.994284721119 0.758862324934 0.994277812
240.0 0.994816858151 0.758863051411 0.994810633
245.0 0.995369180455 0.7588636935 0.995363563
