# ./jetvheto -in n3lo-fixed-order/H125-LHC13-R04-mb-0-mt-1725-xmur050-xmuf100-log.fxd -xQ 0.5 -out benchmarks-n3lo-smallR/H125-LHC13-R04-mb-0-mt-1725-xmur050-xmuf100-xQ050-N3LO+NNLLb.R0-0.5.res -scheme b -order 2 -ptmax 500.01 -small-r -fixed_order 3 -loop-mass t -R0 0.5
# process = H    
# collider = pp   
# rts =  13000.000
# M   =    125.000
# muR =     62.500
# muF =    125.000
# Q   =     62.500
# p   =      5.000
# include_c1_squared =   F
# loop_mass  = t   
# alphas(MZ) =    0.11800
# alphas(M) =    0.11264
# alphas(muR) =    0.12516
# Rjet =      0.400
# order = NNLL
# pdf name and set = PDF4LHC15_nnlo_mc.LHgrid,    0
# matching scheme = b
# total cross sections [nb] at LO, NLOdiff, NNLOdiff, N3LOdiff =     0.016868    0.020591    0.008553    0.000949
#----------------------------------------------------------------------
# the lines that follow give the jet-veto efficiencies as a function of pt
#         pt            matched eff      resummed eff     fixed-order eff
   2.00000000E+001   4.61291414E-001   5.08742071E-001   4.44147613E-001
   2.50000000E+001   5.45565184E-001   5.86448385E-001   5.31088854E-001
   3.00000000E+001   6.18359152E-001   6.40833231E-001   6.07119654E-001
   3.50000000E+001   6.74395170E-001   6.78408024E-001   6.65155664E-001
   4.00000000E+001   7.19535358E-001   7.03842963E-001   7.11953965E-001
   4.50000000E+001   7.55814895E-001   7.20574940E-001   7.49666337E-001
   5.00000000E+001   7.86739516E-001   7.31200344E-001   7.81846163E-001
   5.50000000E+001   8.13347363E-001   7.37693063E-001   8.09509340E-001
   6.00000000E+001   8.35585336E-001   7.41518708E-001   8.32598772E-001
   6.50000000E+001   8.55887443E-001   7.43707492E-001   8.53579085E-001
   7.00000000E+001   8.72809637E-001   7.44935383E-001   8.71029528E-001
   7.50000000E+001   8.86533188E-001   7.45617994E-001   8.85160222E-001
   8.00000000E+001   8.98649069E-001   7.45997679E-001   8.97586419E-001
   8.50000000E+001   9.09842294E-001   7.46210522E-001   9.09015500E-001
   9.00000000E+001   9.19178812E-001   7.46331435E-001   9.18531151E-001
   9.50000000E+001   9.27946885E-001   7.46401287E-001   9.27435725E-001
   1.00000000E+002   9.35022784E-001   7.46442411E-001   9.34616627E-001
   1.05000000E+002   9.41403408E-001   7.46467109E-001   9.41078136E-001
   1.10000000E+002   9.47205432E-001   7.46482246E-001   9.46942949E-001
   1.15000000E+002   9.52399106E-001   7.46491711E-001   9.52185702E-001
   1.20000000E+002   9.56844222E-001   7.46497749E-001   9.56669565E-001
   1.25000000E+002   9.60591774E-001   7.46501675E-001   9.60447873E-001
   1.30000000E+002   9.64605188E-001   7.46504277E-001   9.64485783E-001
   1.35000000E+002   9.68048228E-001   7.46506032E-001   9.67948544E-001
   1.40000000E+002   9.70835603E-001   7.46507236E-001   9.70751967E-001
   1.45000000E+002   9.73561070E-001   7.46508077E-001   9.73490463E-001
   1.50000000E+002   9.75796285E-001   7.46508674E-001   9.75736407E-001
   1.55000000E+002   9.78444941E-001   7.46509104E-001   9.78393871E-001
   1.60000000E+002   9.79912534E-001   7.46509418E-001   9.79868816E-001
   1.65000000E+002   9.81704341E-001   7.46509651E-001   9.81666733E-001
   1.70000000E+002   9.83218150E-001   7.46509827E-001   9.83185663E-001
   1.75000000E+002   9.84768261E-001   7.46509960E-001   9.84740083E-001
   1.80000000E+002   9.86181482E-001   7.46510063E-001   9.86156947E-001
   1.85000000E+002   9.87444292E-001   7.46510144E-001   9.87422854E-001
   1.90000000E+002   9.88144817E-001   7.46510207E-001   9.88126031E-001
   1.95000000E+002   9.89314660E-001   7.46510258E-001   9.89298131E-001
   2.00000000E+002   9.90268110E-001   7.46510299E-001   9.90253524E-001
   2.05000000E+002   9.91041371E-001   7.46510332E-001   9.91028463E-001
   2.10000000E+002   9.91728381E-001   7.46510359E-001   9.91716927E-001
   2.15000000E+002   9.92597563E-001   7.46510381E-001   9.92587368E-001
   2.20000000E+002   9.93121348E-001   7.46510400E-001   9.93112253E-001
   2.25000000E+002   9.93737699E-001   7.46510416E-001   9.93729564E-001
   2.30000000E+002   9.94314986E-001   7.46510429E-001   9.94307692E-001
   2.35000000E+002   9.94843507E-001   7.46510440E-001   9.94836951E-001
   2.40000000E+002   9.95123102E-001   7.46510450E-001   9.95117200E-001
   2.45000000E+002   9.95628233E-001   7.46510458E-001   9.95622905E-001
