# ./jetvheto -in n3lo-fixed-order/H125-LHC13-R04-heft-xmur100-xmuf100-log.fxd -xQ 0.25 -out benchmarks-n3lo-smallR/H125-LHC13-R04-heft-xmur100-xmuf100-xQ025-N3LO+NNLLb.R0-2.0.res -scheme b -order 2 -ptmax 500.01 -fixed_order 3 -small-r -R0 2.0
# process = H    
# collider = pp   
# rts =  13000.000
# M   =    125.000
# muR =    125.000
# muF =    125.000
# Q   =     31.250
# p   =      5.000
# include_c1_squared =   F
# loop_mass  = none
# alphas(MZ) =    0.11800
# alphas(M) =    0.11264
# alphas(muR) =    0.11264
# Rjet =      0.400
# order = NNLL
# pdf name and set = PDF4LHC15_nnlo_mc.LHgrid,    0
# matching scheme = b
# total cross sections [nb] at LO, NLOdiff, NNLOdiff, N3LOdiff =     0.012945    0.016716    0.010146    0.003834
#----------------------------------------------------------------------
# the lines that follow give the jet-veto efficiencies as a function of pt
#         pt            matched eff      resummed eff     fixed-order eff
   2.00000000E+001   4.28234857E-001   5.38145023E-001   4.08842854E-001
   2.50000000E+001   5.12021070E-001   6.09325295E-001   5.02042917E-001
   3.00000000E+001   5.84924842E-001   6.51182412E-001   5.80189507E-001
   3.50000000E+001   6.42878384E-001   6.73959853E-001   6.40535859E-001
   4.00000000E+001   6.90584253E-001   6.85924452E-001   6.89380469E-001
   4.50000000E+001   7.29725414E-001   6.92247503E-001   7.29072921E-001
   5.00000000E+001   7.63085751E-001   6.95691722E-001   7.62718280E-001
   5.50000000E+001   7.91679750E-001   6.97643192E-001   7.91464926E-001
   6.00000000E+001   8.15811146E-001   6.98794407E-001   8.15679320E-001
   6.50000000E+001   8.37390052E-001   6.99499735E-001   8.37307615E-001
   7.00000000E+001   8.55581549E-001   6.99946938E-001   8.55527758E-001
   7.50000000E+001   8.70690117E-001   7.00239283E-001   8.70653294E-001
   8.00000000E+001   8.83954425E-001   7.00435657E-001   8.83928611E-001
   8.50000000E+001   8.95945001E-001   7.00570790E-001   8.95926690E-001
   9.00000000E+001   9.06196471E-001   7.00665807E-001   9.06183068E-001
   9.50000000E+001   9.15576466E-001   7.00733917E-001   9.15566581E-001
   1.00000000E+002   9.23400461E-001   7.00783594E-001   9.23392937E-001
   1.05000000E+002   9.30422544E-001   7.00820398E-001   9.30416744E-001
   1.10000000E+002   9.36766365E-001   7.00848056E-001   9.36761850E-001
   1.15000000E+002   9.42446341E-001   7.00869111E-001   9.42442779E-001
   1.20000000E+002   9.47394017E-001   7.00885330E-001   9.47391165E-001
   1.25000000E+002   9.51669647E-001   7.00897960E-001   9.51667329E-001
   1.30000000E+002   9.55944811E-001   7.00907894E-001   9.55942935E-001
   1.35000000E+002   9.59717388E-001   7.00915780E-001   9.59715852E-001
   1.40000000E+002   9.62865829E-001   7.00922094E-001   9.62864552E-001
   1.45000000E+002   9.65894396E-001   7.00927190E-001   9.65893331E-001
   1.50000000E+002   9.68455052E-001   7.00931332E-001   9.68454154E-001
   1.55000000E+002   9.71202745E-001   7.00934724E-001   9.71201993E-001
   1.60000000E+002   9.73080111E-001   7.00937518E-001   9.73079465E-001
   1.65000000E+002   9.75096058E-001   7.00939835E-001   9.75095505E-001
   1.70000000E+002   9.76873462E-001   7.00941766E-001   9.76872986E-001
   1.75000000E+002   9.78606905E-001   7.00943385E-001   9.78606495E-001
   1.80000000E+002   9.80202352E-001   7.00944748E-001   9.80201996E-001
   1.85000000E+002   9.81638399E-001   7.00945903E-001   9.81638090E-001
   1.90000000E+002   9.82646305E-001   7.00946884E-001   9.82646032E-001
   1.95000000E+002   9.83952839E-001   7.00947722E-001   9.83952600E-001
   2.00000000E+002   9.85072241E-001   7.00948440E-001   9.85072030E-001
   2.05000000E+002   9.86033305E-001   7.00949059E-001   9.86033119E-001
   2.10000000E+002   9.86906196E-001   7.00949593E-001   9.86906031E-001
   2.15000000E+002   9.87868658E-001   7.00950056E-001   9.87868512E-001
   2.20000000E+002   9.88576322E-001   7.00950458E-001   9.88576191E-001
   2.25000000E+002   9.89323349E-001   7.00950810E-001   9.89323232E-001
   2.30000000E+002   9.90024719E-001   7.00951117E-001   9.90024614E-001
   2.35000000E+002   9.90683463E-001   7.00951387E-001   9.90683369E-001
   2.40000000E+002   9.91145497E-001   7.00951624E-001   9.91145412E-001
   2.45000000E+002   9.91748185E-001   7.00951834E-001   9.91748108E-001
