# ./jetvheto -in n3lo-fixed-order/H125-LHC13-R04-mb-0-mt-1725-xmur050-xmuf050-log.fxd -xQ 0.125 -out benchmarks-n3lo-smallR/H125-LHC13-R04-mb-0-mt-1725-xmur050-xmuf050-xQ125-N3LO+NNLLa.res -scheme a -order 2 -ptmax 500.01 -fixed_order 3 -loop-mass t
# process = H    
# collider = pp   
# rts =  13000.000
# M   =    125.000
# muR =     62.500
# muF =     62.500
# Q   =     15.625
# p   =      5.000
# include_c1_squared =   F
# loop_mass  = t   
# alphas(MZ) =    0.11800
# alphas(M) =    0.11264
# alphas(muR) =    0.12516
# Rjet =      0.400
# order = NNLL
# pdf name and set = PDF4LHC15_nnlo_mc.LHgrid,    0
# matching scheme = a
# total cross sections [nb] at LO, NLOdiff, NNLOdiff, N3LOdiff =     0.015885    0.020561    0.008998    0.001413
#----------------------------------------------------------------------
# the lines that follow give the jet-veto efficiencies as a function of pt
#         pt            matched eff      resummed eff     fixed-order eff
   2.00000000E+001   4.58164104E-001   4.41442113E-001   4.58478332E-001
   2.50000000E+001   5.43544721E-001   4.56015075E-001   5.43713081E-001
   3.00000000E+001   6.15939242E-001   4.60763889E-001   6.16066731E-001
   3.50000000E+001   6.73407258E-001   4.62543355E-001   6.73487735E-001
   4.00000000E+001   7.18020120E-001   4.63300493E-001   7.18067162E-001
   4.50000000E+001   7.56897525E-001   4.63657584E-001   7.56928051E-001
   5.00000000E+001   7.88264733E-001   4.63840470E-001   7.88284226E-001
   5.50000000E+001   8.15197418E-001   4.63940598E-001   8.15210520E-001
   6.00000000E+001   8.37424444E-001   4.63998507E-001   8.37433297E-001
   6.50000000E+001   8.57915086E-001   4.64033567E-001   8.57921417E-001
   7.00000000E+001   8.73774381E-001   4.64055633E-001   8.73778810E-001
   7.50000000E+001   8.87921574E-001   4.64069990E-001   8.87924776E-001
   8.00000000E+001   9.00668598E-001   4.64079603E-001   9.00670973E-001
   8.50000000E+001   9.11968204E-001   4.64086204E-001   9.11969998E-001
   9.00000000E+001   9.21928337E-001   4.64090839E-001   9.21929710E-001
   9.50000000E+001   9.29906269E-001   4.64094158E-001   9.29907319E-001
   1.00000000E+002   9.37505215E-001   4.64096577E-001   9.37506036E-001
   1.05000000E+002   9.43542845E-001   4.64098368E-001   9.43543485E-001
   1.10000000E+002   9.49085376E-001   4.64099713E-001   9.49085884E-001
   1.15000000E+002   9.54322597E-001   4.64100737E-001   9.54323006E-001
   1.20000000E+002   9.59039435E-001   4.64101525E-001   9.59039767E-001
   1.25000000E+002   9.62972609E-001   4.64102139E-001   9.62972878E-001
   1.30000000E+002   9.66366249E-001   4.64102622E-001   9.66366470E-001
   1.35000000E+002   9.69730741E-001   4.64103005E-001   9.69730923E-001
   1.40000000E+002   9.72796884E-001   4.64103312E-001   9.72797037E-001
   1.45000000E+002   9.75465480E-001   4.64103560E-001   9.75465608E-001
   1.50000000E+002   9.77552193E-001   4.64103761E-001   9.77552300E-001
   1.55000000E+002   9.79913942E-001   4.64103926E-001   9.79914033E-001
   1.60000000E+002   9.82029272E-001   4.64104062E-001   9.82029350E-001
   1.65000000E+002   9.83334934E-001   4.64104174E-001   9.83335000E-001
   1.70000000E+002   9.85013294E-001   4.64104268E-001   9.85013351E-001
   1.75000000E+002   9.86560289E-001   4.64104346E-001   9.86560338E-001
   1.80000000E+002   9.87746519E-001   4.64104413E-001   9.87746562E-001
   1.85000000E+002   9.88836579E-001   4.64104469E-001   9.88836616E-001
   1.90000000E+002   9.89952136E-001   4.64104516E-001   9.89952168E-001
   1.95000000E+002   9.90982043E-001   4.64104557E-001   9.90982071E-001
   2.00000000E+002   9.91892550E-001   4.64104592E-001   9.91892575E-001
   2.05000000E+002   9.92610959E-001   4.64104622E-001   9.92610981E-001
   2.10000000E+002   9.93331641E-001   4.64104648E-001   9.93331661E-001
   2.15000000E+002   9.93892033E-001   4.64104671E-001   9.93892050E-001
   2.20000000E+002   9.94689060E-001   4.64104690E-001   9.94689076E-001
   2.25000000E+002   9.95103426E-001   4.64104707E-001   9.95103439E-001
   2.30000000E+002   9.95613090E-001   4.64104722E-001   9.95613102E-001
   2.35000000E+002   9.95984346E-001   4.64104735E-001   9.95984357E-001
   2.40000000E+002   9.96389003E-001   4.64104747E-001   9.96389013E-001
   2.45000000E+002   9.96862024E-001   4.64104757E-001   9.96862033E-001
