# ./jetvheto -in n3lo-fixed-order/H125-LHC13-R04-mb-0-mt-1725-xmur050-xmuf050-log.fxd -xQ 0.333 -out benchmarks-n3lo-smallR/H125-LHC13-R04-mb-0-mt-1725-xmur050-xmuf050-xQ033-NNLO+NNLLa.R0-1.5.res -scheme a -order 2 -ptmax 500.01 -small-r -fixed_order 2 -loop-mass t -R0 1.5
# process = H    
# collider = pp   
# rts =  13000.000
# M   =    125.000
# muR =     62.500
# muF =     62.500
# Q   =     41.625
# p   =      5.000
# include_c1_squared =   F
# loop_mass  = t   
# alphas(MZ) =    0.11800
# alphas(M) =    0.11264
# alphas(muR) =    0.12516
# Rjet =      0.400
# order = NNLL
# pdf name and set = PDF4LHC15_nnlo_mc.LHgrid,    0
# matching scheme = a
# total cross sections [nb] at LO, NLOdiff, NNLOdiff, N3LOdiff =     0.015885    0.020561    0.008998    0.001413
#----------------------------------------------------------------------
# the lines that follow give the jet-veto efficiencies as a function of pt
#         pt            matched eff      resummed eff     fixed-order eff
   2.00000000E+001   4.69436362E-001   4.93465143E-001   4.69057413E-001
   2.50000000E+001   5.55331413E-001   5.68765900E-001   5.55288671E-001
   3.00000000E+001   6.22757587E-001   6.19788643E-001   6.22338019E-001
   3.50000000E+001   6.76531992E-001   6.52900697E-001   6.75875821E-001
   4.00000000E+001   7.20047493E-001   6.73491886E-001   7.19396295E-001
   4.50000000E+001   7.55871587E-001   6.85916937E-001   7.55344248E-001
   5.00000000E+001   7.86069955E-001   6.93334364E-001   7.85683467E-001
   5.50000000E+001   8.11289933E-001   6.97793648E-001   8.11020538E-001
   6.00000000E+001   8.32942778E-001   7.00524591E-001   8.32757246E-001
   6.50000000E+001   8.51629938E-001   7.02237989E-001   8.51501964E-001
   7.00000000E+001   8.67823622E-001   7.03341057E-001   8.67734675E-001
   7.50000000E+001   8.81826097E-001   7.04069412E-001   8.81763053E-001
   8.00000000E+001   8.94132463E-001   7.04561960E-001   8.94087077E-001
   8.50000000E+001   9.04979871E-001   7.04902466E-001   9.04946611E-001
   9.00000000E+001   9.14542089E-001   7.05142658E-001   9.14517318E-001
   9.50000000E+001   9.22921881E-001   7.05315227E-001   9.22903074E-001
   1.00000000E+002   9.30454649E-001   7.05441301E-001   9.30440166E-001
   1.05000000E+002   9.37046577E-001   7.05534821E-001   9.37035250E-001
   1.10000000E+002   9.42945616E-001   7.05605163E-001   9.42936658E-001
   1.15000000E+002   9.48239737E-001   7.05658749E-001   9.48232561E-001
   1.20000000E+002   9.53003955E-001   7.05700049E-001   9.52998144E-001
   1.25000000E+002   9.57331212E-001   7.05732223E-001   9.57326460E-001
   1.30000000E+002   9.61152573E-001   7.05757538E-001   9.61148649E-001
   1.35000000E+002   9.64605041E-001   7.05777639E-001   9.64601780E-001
   1.40000000E+002   9.67753666E-001   7.05793736E-001   9.67750932E-001
   1.45000000E+002   9.70614947E-001   7.05806729E-001   9.70612637E-001
   1.50000000E+002   9.73234525E-001   7.05817294E-001   9.73232562E-001
   1.55000000E+002   9.75588674E-001   7.05825944E-001   9.75586996E-001
   1.60000000E+002   9.77728689E-001   7.05833072E-001   9.77727247E-001
   1.65000000E+002   9.79662136E-001   7.05838981E-001   9.79660891E-001
   1.70000000E+002   9.81440683E-001   7.05843907E-001   9.81439603E-001
   1.75000000E+002   9.83054611E-001   7.05848037E-001   9.83053670E-001
   1.80000000E+002   9.84508345E-001   7.05851516E-001   9.84507522E-001
   1.85000000E+002   9.85854999E-001   7.05854460E-001   9.85854277E-001
   1.90000000E+002   9.87086050E-001   7.05856964E-001   9.87085413E-001
   1.95000000E+002   9.88208877E-001   7.05859102E-001   9.88208314E-001
   2.00000000E+002   9.89236472E-001   7.05860935E-001   9.89235973E-001
   2.05000000E+002   9.90178202E-001   7.05862513E-001   9.90177759E-001
   2.10000000E+002   9.91021672E-001   7.05863875E-001   9.91021276E-001
   2.15000000E+002   9.91819994E-001   7.05865057E-001   9.91819641E-001
   2.20000000E+002   9.92549379E-001   7.05866084E-001   9.92549062E-001
   2.25000000E+002   9.93197038E-001   7.05866981E-001   9.93196753E-001
   2.30000000E+002   9.93833353E-001   7.05867765E-001   9.93833097E-001
   2.35000000E+002   9.94380594E-001   7.05868454E-001   9.94380362E-001
   2.40000000E+002   9.94898109E-001   7.05869060E-001   9.94897900E-001
   2.45000000E+002   9.95371395E-001   7.05869595E-001   9.95371206E-001
