# ./jetvheto -in n3lo-fixed-order/H125-LHC13-R04-heft-xmur025-xmuf050-log.fxd -xQ 0.50 -out benchmarks-n3lo-smallR/H125-LHC13-R04-heft-xmur025-xmuf050-xQ050-NNLO+NNLLb.R0-1.0.res -scheme b -order 2 -ptmax 500.01 -fixed_order 2 -small-r -R0 1.0
# process = H    
# collider = pp   
# rts =  13000.000
# M   =    125.000
# muR =     31.250
# muF =     62.500
# Q   =     62.500
# p   =      5.000
# include_c1_squared =   F
# loop_mass  = none
# alphas(MZ) =    0.11800
# alphas(M) =    0.11264
# alphas(muR) =    0.14091
# Rjet =      0.400
# order = NNLL
# pdf name and set = PDF4LHC15_nnlo_mc.LHgrid,    0
# matching scheme = b
# total cross sections [nb] at LO, NLOdiff, NNLOdiff, N3LOdiff =     0.019087    0.023444    0.005009   -0.002663
#----------------------------------------------------------------------
# the lines that follow give the jet-veto efficiencies as a function of pt
#         pt            matched eff      resummed eff     fixed-order eff
   2.00000000E+001   4.52571304E-001   5.01810547E-001   3.51201593E-001
   2.50000000E+001   5.31812285E-001   5.69476509E-001   4.53092817E-001
   3.00000000E+001   5.95679713E-001   6.16061493E-001   5.34374852E-001
   3.50000000E+001   6.47557199E-001   6.47713738E-001   5.99824365E-001
   4.00000000E+001   6.90567278E-001   6.68737509E-001   6.53525896E-001
   4.50000000E+001   7.26724540E-001   6.82230618E-001   6.98153016E-001
   5.00000000E+001   7.57578806E-001   6.90514744E-001   7.35694236E-001
   5.50000000E+001   7.84141354E-001   6.95345048E-001   7.67474216E-001
   6.00000000E+001   8.07156392E-001   6.98008559E-001   7.94510343E-001
   6.50000000E+001   8.27392042E-001   6.99390849E-001   8.17803411E-001
   7.00000000E+001   8.45336706E-001   7.00059672E-001   8.38051240E-001
   7.50000000E+001   8.61020940E-001   7.00353018E-001   8.55460782E-001
   8.00000000E+001   8.75001201E-001   7.00459297E-001   8.70730835E-001
   8.50000000E+001   8.87447838E-001   7.00477895E-001   8.84143156E-001
   9.00000000E+001   8.98547906E-001   7.00459108E-001   8.95969392E-001
   9.50000000E+001   9.08313168E-001   7.00427192E-001   9.06284040E-001
   1.00000000E+002   9.17075396E-001   7.00393210E-001   9.15465002E-001
   1.05000000E+002   9.24813491E-001   7.00361777E-001   9.23524651E-001
   1.10000000E+002   9.31788232E-001   7.00334456E-001   9.30748349E-001
   1.15000000E+002   9.38003580E-001   7.00311441E-001   9.37158088E-001
   1.20000000E+002   9.43603447E-001   7.00292363E-001   9.42910903E-001
   1.25000000E+002   9.48653144E-001   7.00276674E-001   9.48081928E-001
   1.30000000E+002   9.53135362E-001   7.00263811E-001   9.52661099E-001
   1.35000000E+002   9.57221469E-001   7.00253268E-001   9.56825252E-001
   1.40000000E+002   9.60908793E-001   7.00244611E-001   9.60575828E-001
   1.45000000E+002   9.64196333E-001   7.00237485E-001   9.63914985E-001
   1.50000000E+002   9.67219467E-001   7.00231598E-001   9.66980484E-001
   1.55000000E+002   9.69931082E-001   7.00226716E-001   9.69727088E-001
   1.60000000E+002   9.72410687E-001   7.00222650E-001   9.72235737E-001
   1.65000000E+002   9.74631230E-001   7.00219251E-001   9.74480533E-001
   1.70000000E+002   9.76685699E-001   7.00216397E-001   9.76555346E-001
   1.75000000E+002   9.78578140E-001   7.00213990E-001   9.78464937E-001
   1.80000000E+002   9.80262401E-001   7.00211953E-001   9.80163723E-001
   1.85000000E+002   9.81814850E-001   7.00210221E-001   9.81728526E-001
   1.90000000E+002   9.83244200E-001   7.00208743E-001   9.83168427E-001
   1.95000000E+002   9.84532736E-001   7.00207477E-001   9.84466011E-001
   2.00000000E+002   9.85714627E-001   7.00206390E-001   9.85655687E-001
   2.05000000E+002   9.86817682E-001   7.00205451E-001   9.86765465E-001
   2.10000000E+002   9.87803015E-001   7.00204639E-001   9.87756625E-001
   2.15000000E+002   9.88734741E-001   7.00203934E-001   9.88693417E-001
   2.20000000E+002   9.89592623E-001   7.00203320E-001   9.89555717E-001
   2.25000000E+002   9.90340658E-001   7.00202783E-001   9.90307618E-001
   2.30000000E+002   9.91102605E-001   7.00202313E-001   9.91072955E-001
   2.35000000E+002   9.91753409E-001   7.00201900E-001   9.91726743E-001
   2.40000000E+002   9.92369210E-001   7.00201536E-001   9.92345174E-001
   2.45000000E+002   9.92939948E-001   7.00201215E-001   9.92918238E-001
