# ./jetvheto -in n3lo-fixed-order/H125-LHC13-R04-mb-0-mt-1725-xmur050-xmuf050-log.fxd -xQ 0.25 -out benchmarks-n3lo-smallR/H125-LHC13-R04-mb-0-mt-1725-xmur050-xmuf050-xQ025-NNLO+NNLLa.res -scheme a -order 2 -ptmax 500.01 -fixed_order 2 -loop-mass t
# process = H    
# collider = pp   
# rts =  13000.000
# M   =    125.000
# muR =     62.500
# muF =     62.500
# Q   =     31.250
# p   =      5.000
# include_c1_squared =   F
# loop_mass  = t   
# alphas(MZ) =    0.11800
# alphas(M) =    0.11264
# alphas(muR) =    0.12516
# Rjet =      0.400
# order = NNLL
# pdf name and set = PDF4LHC15_nnlo_mc.LHgrid,    0
# matching scheme = a
# total cross sections [nb] at LO, NLOdiff, NNLOdiff, N3LOdiff =     0.015885    0.020561    0.008998    0.001413
#----------------------------------------------------------------------
# the lines that follow give the jet-veto efficiencies as a function of pt
#         pt            matched eff      resummed eff     fixed-order eff
   2.00000000E+001   4.64021484E-001   4.94414941E-001   4.69057413E-001
   2.50000000E+001   5.51188332E-001   5.64563484E-001   5.55288671E-001
   3.00000000E+001   6.19528118E-001   6.06098096E-001   6.22338019E-001
   3.50000000E+001   6.74044560E-001   6.28808121E-001   6.75875821E-001
   4.00000000E+001   7.18204657E-001   6.40772269E-001   7.19396295E-001
   4.50000000E+001   7.54557446E-001   6.47105559E-001   7.55344248E-001
   5.00000000E+001   7.85153760E-001   6.50558633E-001   7.85683467E-001
   5.50000000E+001   8.10656570E-001   6.52516191E-001   8.11020538E-001
   6.00000000E+001   8.32502307E-001   6.53671367E-001   8.32757246E-001
   6.50000000E+001   8.51319942E-001   6.54379260E-001   8.51501964E-001
   7.00000000E+001   8.67602294E-001   6.54828143E-001   8.67734675E-001
   7.50000000E+001   8.81665308E-001   6.55121609E-001   8.81763053E-001
   8.00000000E+001   8.94013777E-001   6.55318747E-001   8.94087077E-001
   8.50000000E+001   9.04890877E-001   6.55454411E-001   9.04946611E-001
   9.00000000E+001   9.14474392E-001   6.55549802E-001   9.14517318E-001
   9.50000000E+001   9.22869650E-001   6.55618183E-001   9.22903074E-001
   1.00000000E+002   9.30413849E-001   6.55668057E-001   9.30440166E-001
   1.05000000E+002   9.37014332E-001   6.55705009E-001   9.37035250E-001
   1.10000000E+002   9.42919871E-001   6.55732777E-001   9.42936658E-001
   1.15000000E+002   9.48218976E-001   6.55753916E-001   9.48232561E-001
   1.20000000E+002   9.52987062E-001   6.55770200E-001   9.52998144E-001
   1.25000000E+002   9.57317353E-001   6.55782880E-001   9.57326460E-001
   1.30000000E+002   9.61141114E-001   6.55792854E-001   9.61148649E-001
   1.35000000E+002   9.64595504E-001   6.55800772E-001   9.64601780E-001
   1.40000000E+002   9.67745674E-001   6.55807112E-001   9.67750932E-001
   1.45000000E+002   9.70608207E-001   6.55812228E-001   9.70612637E-001
   1.50000000E+002   9.73228809E-001   6.55816387E-001   9.73232562E-001
   1.55000000E+002   9.75583800E-001   6.55819792E-001   9.75586996E-001
   1.60000000E+002   9.77724513E-001   6.55822598E-001   9.77727247E-001
   1.65000000E+002   9.79658542E-001   6.55824924E-001   9.79660891E-001
   1.70000000E+002   9.81437575E-001   6.55826863E-001   9.81439603E-001
   1.75000000E+002   9.83051913E-001   6.55828488E-001   9.83053670E-001
   1.80000000E+002   9.84505994E-001   6.55829857E-001   9.84507522E-001
   1.85000000E+002   9.85852943E-001   6.55831016E-001   9.85854277E-001
   1.90000000E+002   9.87084245E-001   6.55832001E-001   9.87085413E-001
   1.95000000E+002   9.88207287E-001   6.55832842E-001   9.88208314E-001
   2.00000000E+002   9.89235067E-001   6.55833564E-001   9.89235973E-001
   2.05000000E+002   9.90176958E-001   6.55834184E-001   9.90177759E-001
   2.10000000E+002   9.91020566E-001   6.55834721E-001   9.91021276E-001
   2.15000000E+002   9.91819009E-001   6.55835186E-001   9.91819641E-001
   2.20000000E+002   9.92548499E-001   6.55835590E-001   9.92549062E-001
   2.25000000E+002   9.93196250E-001   6.55835943E-001   9.93196753E-001
   2.30000000E+002   9.93832646E-001   6.55836251E-001   9.93833097E-001
   2.35000000E+002   9.94379957E-001   6.55836522E-001   9.94380362E-001
   2.40000000E+002   9.94897535E-001   6.55836761E-001   9.94897900E-001
   2.45000000E+002   9.95370877E-001   6.55836971E-001   9.95371206E-001
