# ./jetvheto -in n3lo-fixed-order/H125-LHC13-R04-mb-0-mt-1725-xmur050-xmuf050-log.fxd -xQ 1.0 -out benchmarks-n3lo-smallR/H125-LHC13-R04-mb-0-mt-1725-xmur050-xmuf050-xQ100-NNLO+NNLLa.R0-2.0.res -scheme a -order 2 -ptmax 500.01 -small-r -fixed_order 2 -loop-mass t -R0 2.0
# process = H    
# collider = pp   
# rts =  13000.000
# M   =    125.000
# muR =     62.500
# muF =     62.500
# Q   =    125.000
# p   =      5.000
# include_c1_squared =   F
# loop_mass  = t   
# alphas(MZ) =    0.11800
# alphas(M) =    0.11264
# alphas(muR) =    0.12516
# Rjet =      0.400
# order = NNLL
# pdf name and set = PDF4LHC15_nnlo_mc.LHgrid,    0
# matching scheme = a
# total cross sections [nb] at LO, NLOdiff, NNLOdiff, N3LOdiff =     0.015885    0.020561    0.008998    0.001413
#----------------------------------------------------------------------
# the lines that follow give the jet-veto efficiencies as a function of pt
#         pt            matched eff      resummed eff     fixed-order eff
   2.00000000E+001   6.02331013E-001   6.73953193E-001   4.69057413E-001
   2.50000000E+001   6.79295120E-001   7.42257172E-001   5.55288671E-001
   3.00000000E+001   7.38322770E-001   7.88142553E-001   6.22338019E-001
   3.50000000E+001   7.84414209E-001   8.18416805E-001   6.75875821E-001
   4.00000000E+001   8.20767454E-001   8.37689663E-001   7.19396295E-001
   4.50000000E+001   8.49719238E-001   8.49055661E-001   7.55344248E-001
   5.00000000E+001   8.73243685E-001   8.54669196E-001   7.85683467E-001
   5.50000000E+001   8.91867679E-001   8.56079771E-001   8.11020538E-001
   6.00000000E+001   9.07091036E-001   8.54415822E-001   8.32757246E-001
   6.50000000E+001   9.19537065E-001   8.50524841E-001   8.51501964E-001
   7.00000000E+001   9.29715383E-001   8.45059083E-001   8.67734675E-001
   7.50000000E+001   9.37944585E-001   8.38522050E-001   8.81763053E-001
   8.00000000E+001   9.44768224E-001   8.31312252E-001   8.94087077E-001
   8.50000000E+001   9.50442904E-001   8.23751007E-001   9.04946611E-001
   9.00000000E+001   9.55160684E-001   8.16097569E-001   9.14517318E-001
   9.50000000E+001   9.59032500E-001   8.08558190E-001   9.22903074E-001
   1.00000000E+002   9.62420005E-001   8.01294832E-001   9.30440166E-001
   1.05000000E+002   9.65220591E-001   7.94428170E-001   9.37035250E-001
   1.10000000E+002   9.67690042E-001   7.88041717E-001   9.42936658E-001
   1.15000000E+002   9.69906271E-001   7.82186570E-001   9.48232561E-001
   1.20000000E+002   9.71929426E-001   7.76884479E-001   9.52998144E-001
   1.25000000E+002   9.73832908E-001   7.72134146E-001   9.57326460E-001
   1.30000000E+002   9.75520638E-001   7.67916664E-001   9.61148649E-001
   1.35000000E+002   9.77107676E-001   7.64200478E-001   9.64601780E-001
   1.40000000E+002   9.78631897E-001   7.60946032E-001   9.67750932E-001
   1.45000000E+002   9.80082955E-001   7.58109658E-001   9.70612637E-001
   1.50000000E+002   9.81482002E-001   7.55646610E-001   9.73232562E-001
   1.55000000E+002   9.82780704E-001   7.53513261E-001   9.75586996E-001
   1.60000000E+002   9.84009254E-001   7.51668547E-001   9.77727247E-001
   1.65000000E+002   9.85155599E-001   7.50074775E-001   9.79660891E-001
   1.70000000E+002   9.86254737E-001   7.48698115E-001   9.81439603E-001
   1.75000000E+002   9.87281699E-001   7.47508632E-001   9.83053670E-001
   1.80000000E+002   9.88227541E-001   7.46480082E-001   9.84507522E-001
   1.85000000E+002   9.89134512E-001   7.45589681E-001   9.85854277E-001
   1.90000000E+002   9.89984253E-001   7.44817779E-001   9.87085413E-001
   1.95000000E+002   9.90775734E-001   7.44147508E-001   9.88208314E-001
   2.00000000E+002   9.91514914E-001   7.43564432E-001   9.89235973E-001
   2.05000000E+002   9.92205139E-001   7.43056223E-001   9.90177759E-001
   2.10000000E+002   9.92828718E-001   7.42612371E-001   9.91021276E-001
   2.15000000E+002   9.93434568E-001   7.42223917E-001   9.91819641E-001
   2.20000000E+002   9.93995027E-001   7.41883225E-001   9.92549062E-001
   2.25000000E+002   9.94494034E-001   7.41583781E-001   9.93196753E-001
   2.30000000E+002   9.94999472E-001   7.41320027E-001   9.93833097E-001
   2.35000000E+002   9.95431022E-001   7.41087216E-001   9.94380362E-001
   2.40000000E+002   9.95846171E-001   7.40881282E-001   9.94897900E-001
   2.45000000E+002   9.96228671E-001   7.40698742E-001   9.95371206E-001
