# ./jetvheto -in n3lo-fixed-order/H125-LHC13-R04-mb-0-mt-1725-xmur100-xmuf100-log.fxd -xQ 0.5 -out benchmarks-n3lo-smallR/H125-LHC13-R04-mb-0-mt-1725-xmur100-xmuf100-xQ050-NNLO+NNLLa.R0-0.5.res -scheme a -order 2 -ptmax 500.01 -small-r -fixed_order 2 -loop-mass t -R0 0.5
# process = H    
# collider = pp   
# rts =  13000.000
# M   =    125.000
# muR =    125.000
# muF =    125.000
# Q   =     62.500
# p   =      5.000
# include_c1_squared =   F
# loop_mass  = t   
# alphas(MZ) =    0.11800
# alphas(M) =    0.11264
# alphas(muR) =    0.11264
# Rjet =      0.400
# order = NNLL
# pdf name and set = PDF4LHC15_nnlo_mc.LHgrid,    0
# matching scheme = a
# total cross sections [nb] at LO, NLOdiff, NNLOdiff, N3LOdiff =     0.013801    0.017514    0.010146    0.003834
#----------------------------------------------------------------------
# the lines that follow give the jet-veto efficiencies as a function of pt
#         pt            matched eff      resummed eff     fixed-order eff
   2.00000000E+001   4.92482113E-001   5.20830605E-001   5.12111256E-001
   2.50000000E+001   5.81502826E-001   6.04385424E-001   5.93117916E-001
   3.00000000E+001   6.50437193E-001   6.63675066E-001   6.55183932E-001
   3.50000000E+001   7.04474079E-001   7.05220500E-001   7.04312652E-001
   4.00000000E+001   7.47277363E-001   7.33791103E-001   7.44112204E-001
   4.50000000E+001   7.81391599E-001   7.52944196E-001   7.76741158E-001
   5.00000000E+001   8.09062426E-001   7.65397591E-001   8.03999724E-001
   5.50000000E+001   8.31769652E-001   7.73241222E-001   8.26956486E-001
   6.00000000E+001   8.50811509E-001   7.78047242E-001   8.46582419E-001
   6.50000000E+001   8.66989072E-001   7.80938396E-001   8.63449624E-001
   7.00000000E+001   8.80827413E-001   7.82666130E-001   8.77952928E-001
   7.50000000E+001   8.92952804E-001   7.83704167E-001   8.90657633E-001
   8.00000000E+001   9.03601801E-001   7.84337591E-001   9.01784587E-001
   8.50000000E+001   9.12933697E-001   7.84732918E-001   9.11498483E-001
   9.00000000E+001   9.21232810E-001   7.84986327E-001   9.20097826E-001
   9.50000000E+001   9.28567413E-001   7.85153421E-001   9.27666371E-001
   1.00000000E+002   9.35136276E-001   7.85266717E-001   9.34417045E-001
   1.05000000E+002   9.41011786E-001   7.85345588E-001   9.40434122E-001
   1.10000000E+002   9.46215982E-001   7.85401838E-001   9.45748990E-001
   1.15000000E+002   9.50949449E-001   7.85442838E-001   9.50569353E-001
   1.20000000E+002   9.55178795E-001   7.85473309E-001   9.54867362E-001
   1.25000000E+002   9.59010326E-001   7.85496349E-001   9.58753493E-001
   1.30000000E+002   9.62481037E-001   7.85514037E-001   9.62267892E-001
   1.35000000E+002   9.65607358E-001   7.85527802E-001   9.65429419E-001
   1.40000000E+002   9.68437397E-001   7.85538645E-001   9.68287981E-001
   1.45000000E+002   9.71042103E-001   7.85547278E-001   9.70915959E-001
   1.50000000E+002   9.73366627E-001   7.85554219E-001   9.73259576E-001
   1.55000000E+002   9.75518056E-001   7.85559849E-001   9.75426757E-001
   1.60000000E+002   9.77483816E-001   7.85564452E-001   9.77405590E-001
   1.65000000E+002   9.79263490E-001   7.85568244E-001   9.79196168E-001
   1.70000000E+002   9.80899897E-001   7.85571388E-001   9.80841717E-001
   1.75000000E+002   9.82371032E-001   7.85574011E-001   9.82320552E-001
   1.80000000E+002   9.83736293E-001   7.85576212E-001   9.83692327E-001
   1.85000000E+002   9.84974920E-001   7.85578069E-001   9.84936490E-001
   1.90000000E+002   9.86122736E-001   7.85579644E-001   9.86089030E-001
   1.95000000E+002   9.87184382E-001   7.85580985E-001   9.87154723E-001
   2.00000000E+002   9.88146293E-001   7.85582132E-001   9.88120114E-001
   2.05000000E+002   9.89044830E-001   7.85583118E-001   9.89021653E-001
   2.10000000E+002   9.89856961E-001   7.85583969E-001   9.89836384E-001
   2.15000000E+002   9.90597952E-001   7.85584705E-001   9.90579634E-001
   2.20000000E+002   9.91293491E-001   7.85585344E-001   9.91277142E-001
   2.25000000E+002   9.91929764E-001   7.85585902E-001   9.91915136E-001
   2.30000000E+002   9.92519051E-001   7.85586389E-001   9.92505931E-001
   2.35000000E+002   9.93071973E-001   7.85586817E-001   9.93060180E-001
   2.40000000E+002   9.93567963E-001   7.85587193E-001   9.93557338E-001
   2.45000000E+002   9.94034698E-001   7.85587524E-001   9.94025107E-001
