# ./jetvheto -in n3lo-fixed-order/H125-LHC13-R04-heft-xmur200-xmuf100-log.fxd -xQ 0.50 -out benchmarks-n3lo-smallR/H125-LHC13-R04-heft-xmur200-xmuf100-xQ050-NNLO+NNLLa.R0-0.5.res -scheme a -order 2 -ptmax 500.01 -fixed_order 2 -small-r -R0 0.5
# process = H    
# collider = pp   
# rts =  13000.000
# M   =    125.000
# muR =    250.000
# muF =    125.000
# Q   =     62.500
# p   =      5.000
# include_c1_squared =   F
# loop_mass  = none
# alphas(MZ) =    0.11800
# alphas(M) =    0.11264
# alphas(muR) =    0.10244
# Rjet =      0.400
# order = NNLL
# pdf name and set = PDF4LHC15_nnlo_mc.LHgrid,    0
# matching scheme = a
# total cross sections [nb] at LO, NLOdiff, NNLOdiff, N3LOdiff =     0.010706    0.014429    0.010526    0.005600
#----------------------------------------------------------------------
# the lines that follow give the jet-veto efficiencies as a function of pt
#         pt            matched eff      resummed eff     fixed-order eff
   2.00000000E+001   4.91000028E-001   5.22709373E-001   5.40523476E-001
   2.50000000E+001   5.81401544E-001   6.08432675E-001   6.16280278E-001
   3.00000000E+001   6.51594694E-001   6.69822202E-001   6.74064098E-001
   3.50000000E+001   7.06406586E-001   7.13254478E-001   7.19528581E-001
   4.00000000E+001   7.49681916E-001   7.43444841E-001   7.56335383E-001
   4.50000000E+001   7.84028441E-001   7.63939717E-001   7.86552877E-001
   5.00000000E+001   8.11664709E-001   7.77469479E-001   8.11806384E-001
   5.50000000E+001   8.34159359E-001   7.86151235E-001   8.33110370E-001
   6.00000000E+001   8.52826505E-001   7.91593076E-001   8.51324983E-001
   6.50000000E+001   8.68581792E-001   7.94956790E-001   8.67030652E-001
   7.00000000E+001   8.81983831E-001   7.97030920E-001   8.80571642E-001
   7.50000000E+001   8.93614839E-001   7.98321068E-001   8.92407316E-001
   8.00000000E+001   9.03771487E-001   7.99137734E-001   9.02772815E-001
   8.50000000E+001   9.12671301E-001   7.99666663E-001   9.11859395E-001
   9.00000000E+001   9.20597055E-001   8.00018089E-001   9.19942168E-001
   9.50000000E+001   9.27595496E-001   8.00257685E-001   9.27068378E-001
   1.00000000E+002   9.33840038E-001   8.00425114E-001   9.33415174E-001
   1.05000000E+002   9.39429227E-001   8.00544801E-001   9.39085598E-001
   1.10000000E+002   9.44418439E-001   8.00632136E-001   9.44139203E-001
   1.15000000E+002   9.48933409E-001   8.00697043E-001   9.48705279E-001
   1.20000000E+002   9.52990799E-001   8.00746076E-001   9.52803352E-001
   1.25000000E+002   9.56653734E-001   8.00783659E-001   9.56498829E-001
   1.30000000E+002   9.59963684E-001   8.00812843E-001   9.59834932E-001
   1.35000000E+002   9.62983925E-001   8.00835769E-001   9.62876307E-001
   1.40000000E+002   9.65696049E-001   8.00853968E-001   9.65605603E-001
   1.45000000E+002   9.68203884E-001   8.00868553E-001   9.68127472E-001
   1.50000000E+002   9.70451723E-001   8.00880343E-001   9.70386843E-001
   1.55000000E+002   9.72516111E-001   8.00889950E-001   9.72460757E-001
   1.60000000E+002   9.74418214E-001   8.00897833E-001   9.74370771E-001
   1.65000000E+002   9.76147606E-001   8.00904347E-001   9.76106767E-001
   1.70000000E+002   9.77751608E-001   8.00909763E-001   9.77716306E-001
   1.75000000E+002   9.79206862E-001   8.00914292E-001   9.79176227E-001
   1.80000000E+002   9.80560979E-001   8.00918099E-001   9.80534293E-001
   1.85000000E+002   9.81796082E-001   8.00921317E-001   9.81772754E-001
   1.90000000E+002   9.82938008E-001   8.00924048E-001   9.82917545E-001
   1.95000000E+002   9.84010709E-001   8.00926378E-001   9.83992701E-001
   2.00000000E+002   9.84995897E-001   8.00928374E-001   9.84979999E-001
   2.05000000E+002   9.85910663E-001   8.00930090E-001   9.85896587E-001
   2.10000000E+002   9.86752622E-001   8.00931571E-001   9.86740124E-001
   2.15000000E+002   9.87525682E-001   8.00932854E-001   9.87514554E-001
   2.20000000E+002   9.88251758E-001   8.00933969E-001   9.88241826E-001
   2.25000000E+002   9.88924219E-001   8.00934941E-001   9.88915331E-001
   2.30000000E+002   9.89553078E-001   8.00935792E-001   9.89545106E-001
   2.35000000E+002   9.90151114E-001   8.00936538E-001   9.90143947E-001
   2.40000000E+002   9.90695563E-001   8.00937195E-001   9.90689106E-001
   2.45000000E+002   9.91209081E-001   8.00937774E-001   9.91203251E-001
