# ./jetvheto -in n3lo-fixed-order/H125-LHC13-R04-mb-475-mt-1725-xmur200-xmuf100-log.fxd -xQ 0.25 -out benchmarks-n3lo-smallR/H125-LHC13-R04-mb-475-mt-1725-xmur200-xmuf100-xQ025-NNLO+NNLLb.R0-1.0.res -scheme b -order 2 -ptmax 500.01 -fixed_order 2 -small-r -loop-mass t+b -R0 1.0
# process = H    
# collider = pp   
# rts =  13000.000
# M   =    125.000
# muR =    250.000
# muF =    125.000
# Q   =     31.250
# p   =      5.000
# include_c1_squared =   F
# loop_mass  = t+b 
# alphas(MZ) =    0.11800
# alphas(M) =    0.11264
# alphas(muR) =    0.10244
# Rjet =      0.400
# order = NNLL
# pdf name and set = PDF4LHC15_nnlo_mc.LHgrid,    0
# matching scheme = b
# total cross sections [nb] at LO, NLOdiff, NNLOdiff, N3LOdiff =     0.010243    0.014468    0.010526    0.005600
#----------------------------------------------------------------------
# the lines that follow give the jet-veto efficiencies as a function of pt
#         pt            matched eff      resummed eff     fixed-order eff
   2.00000000E+001   3.81219019E-001   5.54490410E-001   3.28991553E-001
   2.50000000E+001   4.63800804E-001   6.27462869E-001   4.37913320E-001
   3.00000000E+001   5.34009119E-001   6.70319910E-001   5.21523223E-001
   3.50000000E+001   5.94057239E-001   6.93621101E-001   5.88073721E-001
   4.00000000E+001   6.44887959E-001   7.05854108E-001   6.41967052E-001
   4.50000000E+001   6.88014163E-001   7.12316941E-001   6.86538953E-001
   5.00000000E+001   7.24695796E-001   7.15836661E-001   7.23921373E-001
   5.50000000E+001   7.55924338E-001   7.17830702E-001   7.55501832E-001
   6.00000000E+001   7.82868040E-001   7.19006959E-001   7.82629750E-001
   6.50000000E+001   8.06176498E-001   7.19727603E-001   8.06038024E-001
   7.00000000E+001   8.26392050E-001   7.20184507E-001   8.26309424E-001
   7.50000000E+001   8.44014901E-001   7.20483188E-001   8.43964512E-001
   8.00000000E+001   8.59570643E-001   7.20683816E-001   8.59539380E-001
   8.50000000E+001   8.73181241E-001   7.20821877E-001   8.73161527E-001
   9.00000000E+001   8.85327578E-001   7.20918951E-001   8.85315039E-001
   9.50000000E+001   8.96031110E-001   7.20988536E-001   8.96023065E-001
   1.00000000E+002   9.05565760E-001   7.21039288E-001   9.05560581E-001
   1.05000000E+002   9.14124104E-001   7.21076889E-001   9.14120778E-001
   1.10000000E+002   9.21680893E-001   7.21105145E-001   9.21678769E-001
   1.15000000E+002   9.28538876E-001   7.21126656E-001   9.28537545E-001
   1.20000000E+002   9.34614026E-001   7.21143226E-001   9.34613214E-001
   1.25000000E+002   9.40184041E-001   7.21156129E-001   9.40183574E-001
   1.30000000E+002   9.45193539E-001   7.21166279E-001   9.45193299E-001
   1.35000000E+002   9.49745876E-001   7.21174335E-001   9.49745786E-001
   1.40000000E+002   9.53843041E-001   7.21180786E-001   9.53843045E-001
   1.45000000E+002   9.57621018E-001   7.21185992E-001   9.57621084E-001
   1.50000000E+002   9.61008229E-001   7.21190224E-001   9.61008331E-001
   1.55000000E+002   9.64142049E-001   7.21193689E-001   9.64142171E-001
   1.60000000E+002   9.66970112E-001   7.21196544E-001   9.66970244E-001
   1.65000000E+002   9.69563563E-001   7.21198911E-001   9.69563698E-001
   1.70000000E+002   9.71938940E-001   7.21200884E-001   9.71939074E-001
   1.75000000E+002   9.74091799E-001   7.21202538E-001   9.74091928E-001
   1.80000000E+002   9.76070383E-001   7.21203931E-001   9.76070506E-001
   1.85000000E+002   9.77883491E-001   7.21205110E-001   9.77883606E-001
   1.90000000E+002   9.79550620E-001   7.21206112E-001   9.79550728E-001
   1.95000000E+002   9.81104614E-001   7.21206968E-001   9.81104714E-001
   2.00000000E+002   9.82515668E-001   7.21207702E-001   9.82515760E-001
   2.05000000E+002   9.83824922E-001   7.21208334E-001   9.83825007E-001
   2.10000000E+002   9.85022876E-001   7.21208880E-001   9.85022954E-001
   2.15000000E+002   9.86105463E-001   7.21209353E-001   9.86105535E-001
   2.20000000E+002   9.87123773E-001   7.21209764E-001   9.87123839E-001
   2.25000000E+002   9.88057008E-001   7.21210123E-001   9.88057069E-001
   2.30000000E+002   9.88917786E-001   7.21210437E-001   9.88917842E-001
   2.35000000E+002   9.89720220E-001   7.21210713E-001   9.89720271E-001
   2.40000000E+002   9.90445270E-001   7.21210956E-001   9.90445317E-001
   2.45000000E+002   9.91131413E-001   7.21211170E-001   9.91131456E-001
