# python build-Q2-histos.py --mtQ1file ../../JetVHeto/benchmarks-n3lo-smallR/H125-LHC13-R04-mb-0-mt-1725-xmur025-xmuf050-xQ050-NNLO+NNLLa.R0-1.0.res --mtQ2file ../../JetVHeto/benchmarks-n3lo-smallR/H125-LHC13-R04-mb-0-mt-1725-xmur025-xmuf050-xQ0625-NNLO+NNLLa.R0-1.0.res --mtmbQ2file ../../JetVHeto/benchmarks-n3lo-smallR/H125-LHC13-R04-mb-475-mt-1725-xmur025-xmuf050-xQ0625-NNLO+NNLLa.R0-1.0.res
# process = H    
# collider = pp   
# rts =  13000.000
# M   =    125.000
# muR =     31.250
# muF =     62.500
# Q1  =  62.500; Q2  =  7.812
# p   =      5.000
# include_c1_squared =   F
# loop_mass  = t+b 
# alphas(MZ) =    0.11800
# alphas(M) =    0.11264
# alphas(muR) =    0.14091
# Rjet =      0.400
# order = NNLL
# pdf name and set = PDF4LHC15_nnlo_mc.LHgrid,    0
# matching scheme = a
# total cross sections [nb] at LO, NLOdiff, NNLOdiff, N3LOdiff =     0.017683    0.024805    0.005009   -0.002663
#----------------------------------------------------------------------
# the lines that follow give the jet-veto efficiencies as a function of pt
#         pt            matched eff      resummed eff     fixed-order eff
20.0 0.476596970581 0.525550349559 0.414085672
25.0 0.558572752996 0.596110973296 0.505029093
30.0 0.623140350263 0.64468973393 0.577905321
35.0 0.674740246717 0.677695997647 0.637010945
40.0 0.716537257123 0.699618270364 0.685569312
45.0 0.751180582981 0.713687233238 0.726196393
50.0 0.780295681569 0.722324196905 0.760456629
55.0 0.804980329649 0.727359629167 0.789469884
60.0 0.826287272002 0.730135744895 0.814281031
65.0 0.84487460807 0.731576057326 0.835639279
70.0 0.861338414012 0.732272609522 0.854251825
75.0 0.875720347117 0.732577822943 0.870275272
80.0 0.888562947262 0.732688132772 0.884361842
85.0 0.90002712644 0.732707137991 0.896766205
90.0 0.910186620638 0.732687255215 0.907637475
95.0 0.919150685981 0.732653754518 0.917142453
100.0 0.927227994343 0.732618152704 0.925632859
105.0 0.934388481967 0.732585249495 0.93311149
110.0 0.940792054965 0.732556662563 0.939761709
115.0 0.946550134962 0.732532588599 0.9457124
120.0 0.951707902047 0.732512636163 0.951021795
125.0 0.956392722405 0.732496229128 0.955826863
130.0 0.960532095713 0.732482780268 0.960062402
135.0 0.964290389886 0.732471756295 0.963898119
140.0 0.967697191648 0.732462706209 0.967367633
145.0 0.970747591979 0.732455256197 0.97046917
150.0 0.973544905537 0.732449101348 0.973308453
155.0 0.976062268748 0.732443997786 0.975860478
160.0 0.978338798622 0.732439748555 0.978165785
165.0 0.980381878403 0.732436194802 0.980232885
170.0 0.982248348303 0.732433211619 0.982119504
175.0 0.983974519446 0.732430695442 0.98386266
180.0 0.985497884736 0.732428565643 0.985400406
185.0 0.98691072888 0.73242675521 0.986825476
190.0 0.98819802235 0.732425210736 0.988123211
195.0 0.989357887917 0.732423888254 0.989292025
200.0 0.990410785702 0.732422751101 0.990352622
205.0 0.991383558666 0.732421769973 0.991332044
210.0 0.992238734606 0.732420920773 0.992192981
215.0 0.993056288399 0.732420183616 0.993015542
220.0 0.993803056056 0.732419541848 0.993766676
225.0 0.994442259337 0.732418981549 0.994409698
230.0 0.995088653713 0.732418489414 0.995059442
235.0 0.995634250264 0.732418058006 0.995607983
240.0 0.996145468446 0.732417677909 0.996121799
245.0 0.996606326189 0.73241734179 0.996584953
