# ./jetvheto -in n3lo-fixed-order/H125-LHC13-R04-mb-475-mt-1725-xmur100-xmuf100-log.fxd -xQ 1.0 -out benchmarks-n3lo-smallR/H125-LHC13-R04-mb-475-mt-1725-xmur100-xmuf100-xQ100-NNLO+NNLLa.R0-0.5.res -scheme a -order 2 -ptmax 500.01 -fixed_order 2 -small-r -loop-mass t+b -R0 0.5
# process = H    
# collider = pp   
# rts =  13000.000
# M   =    125.000
# muR =    125.000
# muF =    125.000
# Q   =    125.000
# p   =      5.000
# include_c1_squared =   F
# loop_mass  = t+b 
# alphas(MZ) =    0.11800
# alphas(M) =    0.11264
# alphas(muR) =    0.11264
# Rjet =      0.400
# order = NNLL
# pdf name and set = PDF4LHC15_nnlo_mc.LHgrid,    0
# matching scheme = a
# total cross sections [nb] at LO, NLOdiff, NNLOdiff, N3LOdiff =     0.012292    0.016994    0.010146    0.003834
#----------------------------------------------------------------------
# the lines that follow give the jet-veto efficiencies as a function of pt
#         pt            matched eff      resummed eff     fixed-order eff
   2.00000000E+001   5.07631794E-001   5.60806855E-001   4.93150502E-001
   2.50000000E+001   6.02852635E-001   6.48414063E-001   5.75024850E-001
   3.00000000E+001   6.77312354E-001   7.10236621E-001   6.38301171E-001
   3.50000000E+001   7.36188850E-001   7.53538131E-001   6.88801162E-001
   4.00000000E+001   7.82879519E-001   7.83435302E-001   7.29800784E-001
   4.50000000E+001   8.20202114E-001   8.03504084E-001   7.63713984E-001
   5.00000000E+001   8.50183947E-001   8.16295521E-001   7.92155543E-001
   5.50000000E+001   8.74244823E-001   8.23667098E-001   8.16168137E-001
   6.00000000E+001   8.93780562E-001   8.26983859E-001   8.36797648E-001
   6.50000000E+001   9.09587695E-001   8.27269672E-001   8.54584097E-001
   7.00000000E+001   9.22324806E-001   8.25313891E-001   8.69965602E-001
   7.50000000E+001   9.32598823E-001   8.21733414E-001   8.83354565E-001
   8.00000000E+001   9.40976369E-001   8.17020055E-001   8.95150407E-001
   8.50000000E+001   9.47672429E-001   8.11569484E-001   9.05446499E-001
   9.00000000E+001   9.53207247E-001   8.05701972E-001   9.14630889E-001
   9.50000000E+001   9.57664937E-001   7.99673160E-001   9.22708788E-001
   1.00000000E+002   9.61340216E-001   7.93685665E-001   9.29893229E-001
   1.05000000E+002   9.64440015E-001   7.87894823E-001   9.36331059E-001
   1.10000000E+002   9.66988015E-001   7.82413591E-001   9.42008406E-001
   1.15000000E+002   9.69250096E-001   7.77318630E-001   9.47155949E-001
   1.20000000E+002   9.71171541E-001   7.72654397E-001   9.51709725E-001
   1.25000000E+002   9.72968562E-001   7.68439058E-001   9.55877636E-001
   1.30000000E+002   9.74593760E-001   7.64670193E-001   9.59620741E-001
   1.35000000E+002   9.76118846E-001   7.61330286E-001   9.63021762E-001
   1.40000000E+002   9.77513111E-001   7.58391668E-001   9.66068699E-001
   1.45000000E+002   9.78885439E-001   7.55820686E-001   9.68886869E-001
   1.50000000E+002   9.80135263E-001   7.53581013E-001   9.71399196E-001
   1.55000000E+002   9.81360480E-001   7.51636033E-001   9.73721950E-001
   1.60000000E+002   9.82508411E-001   7.49950494E-001   9.75822606E-001
   1.65000000E+002   9.83600781E-001   7.48491593E-001   9.77741229E-001
   1.70000000E+002   9.84644664E-001   7.47229506E-001   9.79501024E-001
   1.75000000E+002   9.85612770E-001   7.46137586E-001   9.81089888E-001
   1.80000000E+002   9.86536992E-001   7.45192347E-001   9.82552292E-001
   1.85000000E+002   9.87405017E-001   7.44373294E-001   9.83887543E-001
   1.90000000E+002   9.88227982E-001   7.43662671E-001   9.85116487E-001
   1.95000000E+002   9.89021501E-001   7.43045182E-001   9.86263234E-001
   2.00000000E+002   9.89751167E-001   7.42507700E-001   9.87300933E-001
   2.05000000E+002   9.90446338E-001   7.42038992E-001   9.88265058E-001
   2.10000000E+002   9.91090501E-001   7.41629455E-001   9.89144590E-001
   2.15000000E+002   9.91676601E-001   7.41270895E-001   9.89937088E-001
   2.20000000E+002   9.92243194E-001   7.40956315E-001   9.90684915E-001
   2.25000000E+002   9.92767500E-001   7.40679740E-001   9.91368764E-001
   2.30000000E+002   9.93257323E-001   7.40436068E-001   9.91999301E-001
   2.35000000E+002   9.93722832E-001   7.40220933E-001   9.92589146E-001
   2.40000000E+002   9.94142320E-001   7.40030597E-001   9.93118784E-001
   2.45000000E+002   9.94546867E-001   7.39861854E-001   9.93621047E-001
