# ./jetvheto -in n3lo-fixed-order/H125-LHC13-R04-mb-0-mt-1725-xmur050-xmuf050-log.fxd -xQ 0.5 -out benchmarks-n3lo-smallR/H125-LHC13-R04-mb-0-mt-1725-xmur050-xmuf050-xQ050-NNLO+NNLLa.R0-1.0.res -scheme a -order 2 -ptmax 500.01 -small-r -fixed_order 2 -loop-mass t -R0 1.0
# process = H    
# collider = pp   
# rts =  13000.000
# M   =    125.000
# muR =     62.500
# muF =     62.500
# Q   =     62.500
# p   =      5.000
# include_c1_squared =   F
# loop_mass  = t   
# alphas(MZ) =    0.11800
# alphas(M) =    0.11264
# alphas(muR) =    0.12516
# Rjet =      0.400
# order = NNLL
# pdf name and set = PDF4LHC15_nnlo_mc.LHgrid,    0
# matching scheme = a
# total cross sections [nb] at LO, NLOdiff, NNLOdiff, N3LOdiff =     0.015885    0.020561    0.008998    0.001413
#----------------------------------------------------------------------
# the lines that follow give the jet-veto efficiencies as a function of pt
#         pt            matched eff      resummed eff     fixed-order eff
   2.00000000E+001   4.79998304E-001   5.02926237E-001   4.69057413E-001
   2.50000000E+001   5.67048827E-001   5.80998431E-001   5.55288671E-001
   3.00000000E+001   6.34977347E-001   6.36110805E-001   6.22338019E-001
   3.50000000E+001   6.88733023E-001   6.74545852E-001   6.75875821E-001
   4.00000000E+001   7.31706035E-001   7.00857673E-001   7.19396295E-001
   4.50000000E+001   7.66506320E-001   7.18396492E-001   7.55344248E-001
   5.00000000E+001   7.95354759E-001   7.29716189E-001   7.85683467E-001
   5.50000000E+001   8.19084589E-001   7.36781275E-001   8.11020538E-001
   6.00000000E+001   8.39297592E-001   7.41063409E-001   8.32757246E-001
   6.50000000E+001   8.56702461E-001   7.43604393E-001   8.51501964E-001
   7.00000000E+001   8.71818573E-001   7.45097700E-001   8.67734675E-001
   7.50000000E+001   8.84951542E-001   7.45977447E-001   8.81763053E-001
   8.00000000E+001   8.96573913E-001   7.46502507E-001   8.94087077E-001
   8.50000000E+001   9.06890896E-001   7.46822394E-001   9.04946611E-001
   9.00000000E+001   9.16044438E-001   7.47022440E-001   9.14517318E-001
   9.50000000E+001   9.24109886E-001   7.47151176E-001   9.22903074E-001
   1.00000000E+002   9.31400555E-001   7.47236460E-001   9.30440166E-001
   1.05000000E+002   9.37804989E-001   7.47294566E-001   9.37035250E-001
   1.10000000E+002   9.43558103E-001   7.47335211E-001   9.42936658E-001
   1.15000000E+002   9.48737959E-001   7.47364332E-001   9.48232561E-001
   1.20000000E+002   9.53412068E-001   7.47385655E-001   9.52998144E-001
   1.25000000E+002   9.57667783E-001   7.47401571E-001   9.57326460E-001
   1.30000000E+002   9.61431900E-001   7.47413658E-001   9.61148649E-001
   1.35000000E+002   9.64838268E-001   7.47422978E-001   9.64601780E-001
   1.40000000E+002   9.67949545E-001   7.47430261E-001   9.67750932E-001
   1.45000000E+002   9.70780373E-001   7.47436023E-001   9.70612637E-001
   1.50000000E+002   9.73374962E-001   7.47440629E-001   9.73232562E-001
   1.55000000E+002   9.75708479E-001   7.47444349E-001   9.75586996E-001
   1.60000000E+002   9.77831371E-001   7.47447377E-001   9.77727247E-001
   1.65000000E+002   9.79750531E-001   7.47449864E-001   9.79660891E-001
   1.70000000E+002   9.81517098E-001   7.47451920E-001   9.81439603E-001
   1.75000000E+002   9.83120929E-001   7.47453631E-001   9.83053670E-001
   1.80000000E+002   9.84566119E-001   7.47455064E-001   9.84507522E-001
   1.85000000E+002   9.85905512E-001   7.47456271E-001   9.85854277E-001
   1.90000000E+002   9.87130364E-001   7.47457293E-001   9.87085413E-001
   1.95000000E+002   9.88247880E-001   7.47458163E-001   9.88208314E-001
   2.00000000E+002   9.89270907E-001   7.47458906E-001   9.89235973E-001
   2.05000000E+002   9.90208694E-001   7.47459543E-001   9.90177759E-001
   2.10000000E+002   9.91048748E-001   7.47460093E-001   9.91021276E-001
   2.15000000E+002   9.91844102E-001   7.47460568E-001   9.91819641E-001
   2.20000000E+002   9.92570899E-001   7.47460981E-001   9.92549062E-001
   2.25000000E+002   9.93216296E-001   7.47461341E-001   9.93196753E-001
   2.30000000E+002   9.93850628E-001   7.47461655E-001   9.93833097E-001
   2.35000000E+002   9.94396124E-001   7.47461930E-001   9.94380362E-001
   2.40000000E+002   9.94912102E-001   7.47462173E-001   9.94897900E-001
   2.45000000E+002   9.95384029E-001   7.47462386E-001   9.95371206E-001
