# ./jetvheto -in n3lo-fixed-order/H125-LHC13-R04-mb-0-mt-1725-xmur025-xmuf025-log.fxd -xQ 0.25 -out benchmarks-n3lo-smallR/H125-LHC13-R04-mb-0-mt-1725-xmur025-xmuf025-xQ025-NNLO+NNLLb.R0-0.5.res -scheme b -order 2 -ptmax 500.01 -small-r -fixed_order 2 -loop-mass t -R0 0.5
# process = H    
# collider = pp   
# rts =  13000.000
# M   =    125.000
# muR =     31.250
# muF =     31.250
# Q   =     31.250
# p   =      5.000
# include_c1_squared =   F
# loop_mass  = t   
# alphas(MZ) =    0.11800
# alphas(M) =    0.11264
# alphas(muR) =    0.14091
# Rjet =      0.400
# order = NNLL
# pdf name and set = PDF4LHC15_nnlo_mc.LHgrid,    0
# matching scheme = b
# total cross sections [nb] at LO, NLOdiff, NNLOdiff, N3LOdiff =     0.018140    0.025356    0.006043   -0.002471
#----------------------------------------------------------------------
# the lines that follow give the jet-veto efficiencies as a function of pt
#         pt            matched eff      resummed eff     fixed-order eff
   2.00000000E+001   3.93440846E-001   4.43783340E-001   3.51600386E-001
   2.50000000E+001   4.77582595E-001   5.07556784E-001   4.53985492E-001
   3.00000000E+001   5.48203689E-001   5.45400735E-001   5.35336815E-001
   3.50000000E+001   6.08421448E-001   5.66124467E-001   6.01450914E-001
   4.00000000E+001   6.59563601E-001   5.77052925E-001   6.55707630E-001
   4.50000000E+001   7.03016920E-001   5.82841771E-001   7.00809251E-001
   5.00000000E+001   7.40069767E-001   5.85999198E-001   7.38750758E-001
   5.50000000E+001   7.71679554E-001   5.87789545E-001   7.70859819E-001
   6.00000000E+001   7.98883293E-001   5.88846187E-001   7.98354652E-001
   6.50000000E+001   8.22397508E-001   5.89493748E-001   8.22044881E-001
   7.00000000E+001   8.42839872E-001   5.89904396E-001   8.42597642E-001
   7.50000000E+001   8.60419437E-001   5.90172873E-001   8.60248412E-001
   8.00000000E+001   8.76004242E-001   5.90353228E-001   8.75880788E-001
   8.50000000E+001   8.89590564E-001   5.90477345E-001   8.89499593E-001
   9.00000000E+001   9.01596327E-001   5.90564618E-001   9.01528041E-001
   9.50000000E+001   9.12064847E-001   5.90627179E-001   9.12012715E-001
   1.00000000E+002   9.21418219E-001   5.90672809E-001   9.21377846E-001
   1.05000000E+002   9.29755829E-001   5.90706616E-001   9.29724151E-001
   1.10000000E+002   9.37122047E-001   5.90732021E-001   9.37096897E-001
   1.15000000E+002   9.43768104E-001   5.90751362E-001   9.43747922E-001
   1.20000000E+002   9.49684839E-001   5.90766260E-001   9.49668478E-001
   1.25000000E+002   9.54881184E-001   5.90777862E-001   9.54867796E-001
   1.30000000E+002   9.59614162E-001   5.90786987E-001   9.59603121E-001
   1.35000000E+002   9.63861026E-001   5.90794231E-001   9.63851855E-001
   1.40000000E+002   9.67679192E-001   5.90800031E-001   9.67671517E-001
   1.45000000E+002   9.71168976E-001   5.90804712E-001   9.71162513E-001
   1.50000000E+002   9.74261549E-001   5.90808518E-001   9.74256073E-001
   1.55000000E+002   9.77057113E-001   5.90811633E-001   9.77052447E-001
   1.60000000E+002   9.79611534E-001   5.90814200E-001   9.79607538E-001
   1.65000000E+002   9.81927129E-001   5.90816328E-001   9.81923690E-001
   1.70000000E+002   9.83980557E-001   5.90818102E-001   9.83977585E-001
   1.75000000E+002   9.85858436E-001   5.90819589E-001   9.85855855E-001
   1.80000000E+002   9.87560399E-001   5.90820842E-001   9.87558150E-001
   1.85000000E+002   9.89079566E-001   5.90821902E-001   9.89077597E-001
   1.90000000E+002   9.90488860E-001   5.90822803E-001   9.90487132E-001
   1.95000000E+002   9.91781858E-001   5.90823573E-001   9.91780336E-001
   2.00000000E+002   9.92924383E-001   5.90824233E-001   9.92923037E-001
   2.05000000E+002   9.93989510E-001   5.90824801E-001   9.93988317E-001
   2.10000000E+002   9.94967847E-001   5.90825291E-001   9.94966787E-001
   2.15000000E+002   9.95796676E-001   5.90825717E-001   9.95795730E-001
   2.20000000E+002   9.96586391E-001   5.90826087E-001   9.96585546E-001
   2.25000000E+002   9.97314117E-001   5.90826409E-001   9.97313360E-001
   2.30000000E+002   9.97944443E-001   5.90826692E-001   9.97943763E-001
   2.35000000E+002   9.98517847E-001   5.90826940E-001   9.98517235E-001
   2.40000000E+002   9.99026872E-001   5.90827158E-001   9.99026319E-001
   2.45000000E+002   9.99503450E-001   5.90827350E-001   9.99502951E-001
