# ./jetvheto -in n3lo-fixed-order/H125-LHC13-R04-mb-0-mt-1725-xmur050-xmuf025-log.fxd -xQ 0.25 -out benchmarks-n3lo-smallR/H125-LHC13-R04-mb-0-mt-1725-xmur050-xmuf025-xQ025-N3LO+NNLLb.R0-1.0.res -scheme b -order 2 -ptmax 500.01 -small-r -fixed_order 3 -loop-mass t -R0 1.0
# process = H    
# collider = pp   
# rts =  13000.000
# M   =    125.000
# muR =     62.500
# muF =     31.250
# Q   =     31.250
# p   =      5.000
# include_c1_squared =   F
# loop_mass  = t   
# alphas(MZ) =    0.11800
# alphas(M) =    0.11264
# alphas(muR) =    0.12516
# Rjet =      0.400
# order = NNLL
# pdf name and set = PDF4LHC15_nnlo_mc.LHgrid,    0
# matching scheme = b
# total cross sections [nb] at LO, NLOdiff, NNLOdiff, N3LOdiff =     0.014513    0.020714    0.009723    0.001827
#----------------------------------------------------------------------
# the lines that follow give the jet-veto efficiencies as a function of pt
#         pt            matched eff      resummed eff     fixed-order eff
   2.00000000E+001   4.39205817E-001   4.86065314E-001   4.32654271E-001
   2.50000000E+001   5.28770474E-001   5.57559001E-001   5.25438435E-001
   3.00000000E+001   6.00017907E-001   6.00214271E-001   5.98274849E-001
   3.50000000E+001   6.57609892E-001   6.23657957E-001   6.56673365E-001
   4.00000000E+001   7.05374089E-001   6.36048501E-001   7.04872664E-001
   4.50000000E+001   7.45491153E-001   6.42620305E-001   7.45219237E-001
   5.00000000E+001   7.78977977E-001   6.46207398E-001   7.78821557E-001
   5.50000000E+001   8.08095473E-001   6.48242223E-001   8.08005902E-001
   6.00000000E+001   8.32176181E-001   6.49443445E-001   8.32119932E-001
   6.50000000E+001   8.51581014E-001   6.50179722E-001   8.51541323E-001
   7.00000000E+001   8.69637977E-001   6.50646670E-001   8.69611350E-001
   7.50000000E+001   8.85031249E-001   6.50951975E-001   8.85012693E-001
   8.00000000E+001   8.97878407E-001   6.51157077E-001   8.97864534E-001
   8.50000000E+001   9.09597231E-001   6.51298228E-001   9.09587011E-001
   9.00000000E+001   9.19889998E-001   6.51397481E-001   9.19882297E-001
   9.50000000E+001   9.27600260E-001   6.51468630E-001   9.27593920E-001
   1.00000000E+002   9.35983689E-001   6.51520525E-001   9.35978860E-001
   1.05000000E+002   9.42461536E-001   6.51558974E-001   9.42457594E-001
   1.10000000E+002   9.49002051E-001   6.51587868E-001   9.48998949E-001
   1.15000000E+002   9.54647375E-001   6.51609864E-001   9.54644871E-001
   1.20000000E+002   9.59130690E-001   6.51626808E-001   9.59128590E-001
   1.25000000E+002   9.62987611E-001   6.51640003E-001   9.62985835E-001
   1.30000000E+002   9.66944970E-001   6.51650381E-001   9.66943495E-001
   1.35000000E+002   9.70219063E-001   6.51658620E-001   9.70217812E-001
   1.40000000E+002   9.73307752E-001   6.51665216E-001   9.73306693E-001
   1.45000000E+002   9.76138373E-001   6.51670540E-001   9.76137473E-001
   1.50000000E+002   9.78548333E-001   6.51674868E-001   9.78547560E-001
   1.55000000E+002   9.80758409E-001   6.51678411E-001   9.80757743E-001
   1.60000000E+002   9.83071559E-001   6.51681331E-001   9.83070991E-001
   1.65000000E+002   9.84784499E-001   6.51683751E-001   9.84784004E-001
   1.70000000E+002   9.86199270E-001   6.51685769E-001   9.86198834E-001
   1.75000000E+002   9.87895074E-001   6.51687460E-001   9.87894697E-001
   1.80000000E+002   9.89053148E-001   6.51688884E-001   9.89052814E-001
   1.85000000E+002   9.90374255E-001   6.51690090E-001   9.90373963E-001
   1.90000000E+002   9.91417861E-001   6.51691115E-001   9.91417603E-001
   1.95000000E+002   9.92535865E-001   6.51691991E-001   9.92535637E-001
   2.00000000E+002   9.93323711E-001   6.51692741E-001   9.93323508E-001
   2.05000000E+002   9.94102670E-001   6.51693387E-001   9.94102489E-001
   2.10000000E+002   9.94812895E-001   6.51693945E-001   9.94812733E-001
   2.15000000E+002   9.95593612E-001   6.51694429E-001   9.95593468E-001
   2.20000000E+002   9.96137764E-001   6.51694850E-001   9.96137634E-001
   2.25000000E+002   9.96785356E-001   6.51695217E-001   9.96785239E-001
   2.30000000E+002   9.97242443E-001   6.51695538E-001   9.97242338E-001
   2.35000000E+002   9.97565696E-001   6.51695820E-001   9.97565601E-001
   2.40000000E+002   9.98041673E-001   6.51696068E-001   9.98041587E-001
   2.45000000E+002   9.98442649E-001   6.51696287E-001   9.98442572E-001
