# ./jetvheto -in n3lo-fixed-order/H125-LHC13-R04-mb-475-mt-1725-xmur050-xmuf050-log.fxd -xQ 0.75 -out benchmarks-n3lo-smallR/H125-LHC13-R04-mb-475-mt-1725-xmur050-xmuf050-xQ075-N3LO+NNLLb.R0-1.5.res -scheme b -order 2 -ptmax 500.01 -fixed_order 3 -small-r -loop-mass t+b -R0 1.5
# process = H    
# collider = pp   
# rts =  13000.000
# M   =    125.000
# muR =     62.500
# muF =     62.500
# Q   =     93.750
# p   =      5.000
# include_c1_squared =   F
# loop_mass  = t+b 
# alphas(MZ) =    0.11800
# alphas(M) =    0.11264
# alphas(muR) =    0.12516
# Rjet =      0.400
# order = NNLL
# pdf name and set = PDF4LHC15_nnlo_mc.LHgrid,    0
# matching scheme = b
# total cross sections [nb] at LO, NLOdiff, NNLOdiff, N3LOdiff =     0.014147    0.020254    0.008998    0.001413
#----------------------------------------------------------------------
# the lines that follow give the jet-veto efficiencies as a function of pt
#         pt            matched eff      resummed eff     fixed-order eff
   2.00000000E+001   4.69475411E-001   5.39168398E-001   4.22880362E-001
   2.50000000E+001   5.51967303E-001   6.11565884E-001   5.10871357E-001
   3.00000000E+001   6.22123086E-001   6.61859521E-001   5.86554172E-001
   3.50000000E+001   6.78054144E-001   6.96504573E-001   6.46974526E-001
   4.00000000E+001   7.21215559E-001   7.19912269E-001   6.94053894E-001
   4.50000000E+001   7.59187199E-001   7.35165459E-001   7.35572065E-001
   5.00000000E+001   7.89396528E-001   7.44464864E-001   7.68984657E-001
   5.50000000E+001   8.15639632E-001   7.49431498E-001   7.98072300E-001
   6.00000000E+001   8.37058872E-001   7.51278237E-001   8.22057983E-001
   6.50000000E+001   8.56957053E-001   7.50942298E-001   8.44160448E-001
   7.00000000E+001   8.72178084E-001   7.49158205E-001   8.61397413E-001
   7.50000000E+001   8.85835337E-001   7.46499478E-001   8.76789719E-001
   8.00000000E+001   8.98260918E-001   7.43405305E-001   8.90691953E-001
   8.50000000E+001   9.09363472E-001   7.40196768E-001   9.03050366E-001
   9.00000000E+001   9.19149055E-001   7.37093062E-001   9.13896477E-001
   9.50000000E+001   9.26983204E-001   7.34227856E-001   9.22639584E-001
   1.00000000E+002   9.34524676E-001   7.31670097E-001   9.30924075E-001
   1.05000000E+002   9.40594030E-001   7.29441867E-001   9.37618957E-001
   1.10000000E+002   9.46185858E-001   7.27534714E-001   9.43720915E-001
   1.15000000E+002   9.51552513E-001   7.25922652E-001   9.49502090E-001
   1.20000000E+002   9.56389522E-001   7.24571529E-001   9.54678868E-001
   1.25000000E+002   9.60432785E-001   7.23445089E-001   9.59003817E-001
   1.30000000E+002   9.63961520E-001   7.22508751E-001   9.62764111E-001
   1.35000000E+002   9.67499873E-001   7.21731313E-001   9.66490458E-001
   1.40000000E+002   9.70735001E-001   7.21085623E-001   9.69880698E-001
   1.45000000E+002   9.73532712E-001   7.20548643E-001   9.72807360E-001
   1.50000000E+002   9.75720001E-001   7.20101143E-001   9.75102905E-001
   1.55000000E+002   9.78237537E-001   7.19727236E-001   9.77708768E-001
   1.60000000E+002   9.80493527E-001   7.19413883E-001   9.80038790E-001
   1.65000000E+002   9.81881673E-001   7.19150426E-001   9.81490611E-001
   1.70000000E+002   9.83662966E-001   7.18928169E-001   9.83324317E-001
   1.75000000E+002   9.85343666E-001   7.18740015E-001   9.85049293E-001
   1.80000000E+002   9.86623970E-001   7.18580174E-001   9.86367565E-001
   1.85000000E+002   9.87808055E-001   7.18443912E-001   9.87583960E-001
   1.90000000E+002   9.89016521E-001   7.18327347E-001   9.88819869E-001
   1.95000000E+002   9.90131342E-001   7.18227296E-001   9.89958231E-001
   2.00000000E+002   9.91114219E-001   7.18141132E-001   9.90961409E-001
   2.05000000E+002   9.91897912E-001   7.18066689E-001   9.91762726E-001
   2.10000000E+002   9.92680863E-001   7.18002170E-001   9.92560879E-001
   2.15000000E+002   9.93294869E-001   7.17946081E-001   9.93188169E-001
   2.20000000E+002   9.94167741E-001   7.17897177E-001   9.94072436E-001
   2.25000000E+002   9.94619220E-001   7.17854416E-001   9.94534058E-001
   2.30000000E+002   9.95171038E-001   7.17816922E-001   9.95094697E-001
   2.35000000E+002   9.95581082E-001   7.17783960E-001   9.95512527E-001
   2.40000000E+002   9.96022356E-001   7.17754906E-001   9.95960635E-001
   2.45000000E+002   9.96530280E-001   7.17729233E-001   9.96474558E-001
