# ./jetvheto -in n3lo-fixed-order/H125-LHC13-R04-heft-xmur100-xmuf200-log.fxd -xQ 0.50 -out benchmarks-n3lo-smallR/H125-LHC13-R04-heft-xmur100-xmuf200-xQ050-NNLO+NNLLa.R0-2.0.res -scheme a -order 2 -ptmax 500.01 -fixed_order 2 -small-r -R0 2.0
# process = H    
# collider = pp   
# rts =  13000.000
# M   =    125.000
# muR =    125.000
# muF =    250.000
# Q   =     62.500
# p   =      5.000
# include_c1_squared =   F
# loop_mass  = none
# alphas(MZ) =    0.11800
# alphas(M) =    0.11264
# alphas(muR) =    0.11264
# Rjet =      0.400
# order = NNLL
# pdf name and set = PDF4LHC15_nnlo_mc.LHgrid,    0
# matching scheme = a
# total cross sections [nb] at LO, NLOdiff, NNLOdiff, N3LOdiff =     0.013467    0.016878    0.009991    0.003297
#----------------------------------------------------------------------
# the lines that follow give the jet-veto efficiencies as a function of pt
#         pt            matched eff      resummed eff     fixed-order eff
   2.00000000E+001   5.07782596E-001   5.40758726E-001   5.05991398E-001
   2.50000000E+001   5.92902783E-001   6.18842841E-001   5.88044316E-001
   3.00000000E+001   6.58618999E-001   6.73406307E-001   6.50748479E-001
   3.50000000E+001   7.09970047E-001   7.11053459E-001   7.00208903E-001
   4.00000000E+001   7.50554512E-001   7.36495729E-001   7.40126597E-001
   4.50000000E+001   7.83242438E-001   7.53187719E-001   7.73138493E-001
   5.00000000E+001   8.09652911E-001   7.63742261E-001   8.00519176E-001
   5.50000000E+001   8.31544387E-001   7.70151821E-001   8.23706557E-001
   6.00000000E+001   8.49830379E-001   7.73895343E-001   8.43354845E-001
   6.50000000E+001   8.65414172E-001   7.76010327E-001   8.60204573E-001
   7.00000000E+001   8.78962659E-001   7.77176203E-001   8.74840597E-001
   7.50000000E+001   8.90740542E-001   7.77808967E-001   8.87507747E-001
   8.00000000E+001   9.01181530E-001   7.78149658E-001   8.98653585E-001
   8.50000000E+001   9.10347124E-001   7.78332547E-001   9.08368213E-001
   9.00000000E+001   9.18554918E-001   7.78430628E-001   9.16999757E-001
   9.50000000E+001   9.25826151E-001   7.78483083E-001   9.24597242E-001
   1.00000000E+002   9.32248488E-001   7.78510919E-001   9.31271109E-001
   1.05000000E+002   9.38083676E-001   7.78525438E-001   9.37300792E-001
   1.10000000E+002   9.43313958E-001   7.78532729E-001   9.42682337E-001
   1.15000000E+002   9.47991833E-001   7.78536106E-001   9.47478602E-001
   1.20000000E+002   9.52214612E-001   7.78537383E-001   9.51794658E-001
   1.25000000E+002   9.55997887E-001   7.78537559E-001   9.55651936E-001
   1.30000000E+002   9.59419614E-001   7.78537183E-001   9.59132780E-001
   1.35000000E+002   9.62566081E-001   7.78536557E-001   9.62326785E-001
   1.40000000E+002   9.65396532E-001   7.78535844E-001   9.65195726E-001
   1.45000000E+002   9.67961985E-001   7.78535131E-001   9.67792544E-001
   1.50000000E+002   9.70299446E-001   7.78534459E-001   9.70155718E-001
   1.55000000E+002   9.72427009E-001   7.78533847E-001   9.72304482E-001
   1.60000000E+002   9.74401394E-001   7.78533300E-001   9.74296447E-001
   1.65000000E+002   9.76193714E-001   7.78532818E-001   9.76103423E-001
   1.70000000E+002   9.77829497E-001   7.78532397E-001   9.77751486E-001
   1.75000000E+002   9.79307527E-001   7.78532029E-001   9.79239856E-001
   1.80000000E+002   9.80684598E-001   7.78531709E-001   9.80625671E-001
   1.85000000E+002   9.81963566E-001   7.78531432E-001   9.81912067E-001
   1.90000000E+002   9.83128694E-001   7.78531190E-001   9.83083532E-001
   1.95000000E+002   9.84207628E-001   7.78530980E-001   9.84167892E-001
   2.00000000E+002   9.85193237E-001   7.78530798E-001   9.85158166E-001
   2.05000000E+002   9.86113173E-001   7.78530638E-001   9.86082127E-001
   2.10000000E+002   9.86967453E-001   7.78530499E-001   9.86939891E-001
   2.15000000E+002   9.87761865E-001   7.78530377E-001   9.87737331E-001
   2.20000000E+002   9.88492731E-001   7.78530271E-001   9.88470834E-001
   2.25000000E+002   9.89169640E-001   7.78530177E-001   9.89150049E-001
   2.30000000E+002   9.89808223E-001   7.78530094E-001   9.89790652E-001
   2.35000000E+002   9.90404579E-001   7.78530021E-001   9.90388785E-001
   2.40000000E+002   9.90940932E-001   7.78529957E-001   9.90926703E-001
   2.45000000E+002   9.91457016E-001   7.78529900E-001   9.91444170E-001
