# ./jetvheto -in n3lo-fixed-order/H125-LHC13-R04-mb-0-mt-1725-xmur200-xmuf100-log.fxd -xQ 0.25 -out benchmarks-n3lo-smallR/H125-LHC13-R04-mb-0-mt-1725-xmur200-xmuf100-xQ025-NNLO+NNLLb.R0-2.0.res -scheme b -order 2 -ptmax 500.01 -small-r -fixed_order 2 -loop-mass t -R0 2.0
# process = H    
# collider = pp   
# rts =  13000.000
# M   =    125.000
# muR =    250.000
# muF =    125.000
# Q   =     31.250
# p   =      5.000
# include_c1_squared =   F
# loop_mass  = t   
# alphas(MZ) =    0.11800
# alphas(M) =    0.11264
# alphas(muR) =    0.10244
# Rjet =      0.400
# order = NNLL
# pdf name and set = PDF4LHC15_nnlo_mc.LHgrid,    0
# matching scheme = b
# total cross sections [nb] at LO, NLOdiff, NNLOdiff, N3LOdiff =     0.011501    0.015066    0.010526    0.005600
#----------------------------------------------------------------------
# the lines that follow give the jet-veto efficiencies as a function of pt
#         pt            matched eff      resummed eff     fixed-order eff
   2.00000000E+001   4.16377493E-001   5.76967179E-001   3.67201827E-001
   2.50000000E+001   4.97841670E-001   6.52080028E-001   4.73161072E-001
   3.00000000E+001   5.65773802E-001   6.96186019E-001   5.53722917E-001
   3.50000000E+001   6.23098491E-001   7.20165325E-001   6.17253656E-001
   4.00000000E+001   6.71463911E-001   7.32754335E-001   6.68576569E-001
   4.50000000E+001   7.12069026E-001   7.39405288E-001   7.10591480E-001
   5.00000000E+001   7.46459668E-001   7.43027476E-001   7.45672623E-001
   5.50000000E+001   7.75660884E-001   7.45079577E-001   7.75224424E-001
   6.00000000E+001   8.00717839E-001   7.46290084E-001   8.00466992E-001
   6.50000000E+001   8.22317553E-001   7.47031713E-001   8.22168588E-001
   7.00000000E+001   8.40930110E-001   7.47501921E-001   8.40838970E-001
   7.50000000E+001   8.57275534E-001   7.47809300E-001   8.57218355E-001
   8.00000000E+001   8.71606868E-001   7.48015771E-001   8.71570191E-001
   8.50000000E+001   8.84149349E-001   7.48157852E-001   8.84125319E-001
   9.00000000E+001   8.95245680E-001   7.48257753E-001   8.95229677E-001
   9.50000000E+001   9.05032178E-001   7.48329364E-001   9.05021342E-001
   1.00000000E+002   9.13778796E-001   7.48381595E-001   9.13771358E-001
   1.05000000E+002   9.21582668E-001   7.48420291E-001   9.21577501E-001
   1.10000000E+002   9.28486196E-001   7.48449370E-001   9.28482563E-001
   1.15000000E+002   9.34753671E-001   7.48471507E-001   9.34751096E-001
   1.20000000E+002   9.40355690E-001   7.48488560E-001   9.40353848E-001
   1.25000000E+002   9.45421495E-001   7.48501839E-001   9.45420170E-001
   1.30000000E+002   9.50013713E-001   7.48512284E-001   9.50012754E-001
   1.35000000E+002   9.54140005E-001   7.48520575E-001   9.54139308E-001
   1.40000000E+002   9.57892910E-001   7.48527214E-001   9.57892400E-001
   1.45000000E+002   9.61329689E-001   7.48532571E-001   9.61329318E-001
   1.50000000E+002   9.64412636E-001   7.48536927E-001   9.64412364E-001
   1.55000000E+002   9.67265604E-001   7.48540493E-001   9.67265406E-001
   1.60000000E+002   9.69868020E-001   7.48543431E-001   9.69867876E-001
   1.65000000E+002   9.72229832E-001   7.48545866E-001   9.72229728E-001
   1.70000000E+002   9.74397717E-001   7.48547897E-001   9.74397644E-001
   1.75000000E+002   9.76352493E-001   7.48549599E-001   9.76352441E-001
   1.80000000E+002   9.78164706E-001   7.48551032E-001   9.78164670E-001
   1.85000000E+002   9.79813117E-001   7.48552246E-001   9.79813093E-001
   1.90000000E+002   9.81339769E-001   7.48553278E-001   9.81339755E-001
   1.95000000E+002   9.82748361E-001   7.48554159E-001   9.82748354E-001
   2.00000000E+002   9.84029038E-001   7.48554914E-001   9.84029035E-001
   2.05000000E+002   9.85224080E-001   7.48555564E-001   9.85224081E-001
   2.10000000E+002   9.86306196E-001   7.48556125E-001   9.86306199E-001
   2.15000000E+002   9.87297706E-001   7.48556612E-001   9.87297711E-001
   2.20000000E+002   9.88224609E-001   7.48557036E-001   9.88224615E-001
   2.25000000E+002   9.89074351E-001   7.48557405E-001   9.89074358E-001
   2.30000000E+002   9.89861879E-001   7.48557728E-001   9.89861887E-001
   2.35000000E+002   9.90598323E-001   7.48558012E-001   9.90598331E-001
   2.40000000E+002   9.91263040E-001   7.48558262E-001   9.91263048E-001
   2.45000000E+002   9.91886605E-001   7.48558482E-001   9.91886612E-001
