# ./jetvheto -in n3lo-fixed-order/H125-LHC13-R04-heft-xmur100-xmuf100-log.fxd -xQ 1.00 -out benchmarks-n3lo-smallR/H125-LHC13-R04-heft-xmur100-xmuf100-xQ100-NNLO+NNLLb.R0-2.0.res -scheme b -order 2 -ptmax 500.01 -fixed_order 2 -small-r -R0 2.0
# process = H    
# collider = pp   
# rts =  13000.000
# M   =    125.000
# muR =    125.000
# muF =    125.000
# Q   =    125.000
# p   =      5.000
# include_c1_squared =   F
# loop_mass  = none
# alphas(MZ) =    0.11800
# alphas(M) =    0.11264
# alphas(muR) =    0.11264
# Rjet =      0.400
# order = NNLL
# pdf name and set = PDF4LHC15_nnlo_mc.LHgrid,    0
# matching scheme = b
# total cross sections [nb] at LO, NLOdiff, NNLOdiff, N3LOdiff =     0.012945    0.016716    0.010146    0.003834
#----------------------------------------------------------------------
# the lines that follow give the jet-veto efficiencies as a function of pt
#         pt            matched eff      resummed eff     fixed-order eff
   2.00000000E+001   4.66682831E-001   6.21374704E-001   3.33152974E-001
   2.50000000E+001   5.47656168E-001   7.03655345E-001   4.42354030E-001
   3.00000000E+001   6.13039623E-001   7.60719619E-001   5.26280770E-001
   3.50000000E+001   6.66349989E-001   7.99963428E-001   5.92590428E-001
   4.00000000E+001   7.10552478E-001   8.26441078E-001   6.46413459E-001
   4.50000000E+001   7.47275662E-001   8.43626239E-001   6.90650611E-001
   5.00000000E+001   7.78143258E-001   8.53973631E-001   7.27636368E-001
   5.50000000E+001   8.04161987E-001   8.59260546E-001   7.58824117E-001
   6.00000000E+001   8.26374909E-001   8.60787416E-001   7.85509225E-001
   6.50000000E+001   8.45403287E-001   8.59527038E-001   8.08501674E-001
   7.00000000E+001   8.61622293E-001   8.56228836E-001   8.28308351E-001
   7.50000000E+001   8.75647548E-001   8.51478290E-001   8.45602652E-001
   8.00000000E+001   8.87785387E-001   8.45742410E-001   8.60742611E-001
   8.50000000E+001   8.98249633E-001   8.39397046E-001   8.73982907E-001
   9.00000000E+001   9.07480964E-001   8.32746415E-001   8.85762882E-001
   9.50000000E+001   9.15494987E-001   8.26032821E-001   8.96129047E-001
   1.00000000E+002   9.22556787E-001   8.19447624E-001   9.05347624E-001
   1.05000000E+002   9.28816439E-001   8.13136400E-001   9.13574722E-001
   1.10000000E+002   9.34342875E-001   8.07203452E-001   9.20889329E-001
   1.15000000E+002   9.39340196E-001   8.01717649E-001   9.27495781E-001
   1.20000000E+002   9.43808681E-001   7.96716330E-001   9.33407561E-001
   1.25000000E+002   9.47857175E-001   7.92211137E-001   9.38739831E-001
   1.30000000E+002   9.51524886E-001   7.88193681E-001   9.43544289E-001
   1.35000000E+002   9.54902556E-001   7.84641022E-001   9.47922026E-001
   1.40000000E+002   9.57935123E-001   7.81520608E-001   9.51833307E-001
   1.45000000E+002   9.60794165E-001   7.78794433E-001   9.55457933E-001
   1.50000000E+002   9.63353932E-001   7.76422332E-001   9.58686494E-001
   1.55000000E+002   9.65737022E-001   7.74364335E-001   9.61650523E-001
   1.60000000E+002   9.67962559E-001   7.72582286E-001   9.64380158E-001
   1.65000000E+002   9.69997834E-001   7.71040888E-001   9.66853279E-001
   1.70000000E+002   9.71911511E-001   7.69708184E-001   9.69146535E-001
   1.75000000E+002   9.73653497E-001   7.68555717E-001   9.71218357E-001
   1.80000000E+002   9.75294944E-001   7.67558467E-001   9.73146048E-001
   1.85000000E+002   9.76798277E-001   7.66694641E-001   9.74898433E-001
   1.90000000E+002   9.78202111E-001   7.65945391E-001   9.76518987E-001
   1.95000000E+002   9.79535711E-001   7.65294501E-001   9.78041382E-001
   2.00000000E+002   9.80762338E-001   7.64728067E-001   9.79433004E-001
   2.05000000E+002   9.81911653E-001   7.64234203E-001   9.80726600E-001
   2.10000000E+002   9.82971442E-001   7.63802755E-001   9.81912904E-001
   2.15000000E+002   9.83944630E-001   7.63425064E-001   9.82997248E-001
   2.20000000E+002   9.84868555E-001   7.63093739E-001   9.84018885E-001
   2.25000000E+002   9.85725555E-001   7.62802474E-001   9.84962045E-001
   2.30000000E+002   9.86529965E-001   7.62545883E-001   9.85842551E-001
   2.35000000E+002   9.87301118E-001   7.62319360E-001   9.86681004E-001
   2.40000000E+002   9.87999718E-001   7.62118962E-001   9.87439341E-001
   2.45000000E+002   9.88663472E-001   7.61941311E-001   9.88156143E-001
