# ./jetvheto -in n3lo-fixed-order/H125-LHC13-R04-heft-xmur100-xmuf100-log.fxd -xQ 1.00 -out benchmarks-n3lo-smallR/H125-LHC13-R04-heft-xmur100-xmuf100-xQ100-N3LO+NNLLa.R0-0.5.res -scheme a -order 2 -ptmax 500.01 -fixed_order 3 -small-r -R0 0.5
# process = H    
# collider = pp   
# rts =  13000.000
# M   =    125.000
# muR =    125.000
# muF =    125.000
# Q   =    125.000
# p   =      5.000
# include_c1_squared =   F
# loop_mass  = none
# alphas(MZ) =    0.11800
# alphas(M) =    0.11264
# alphas(muR) =    0.11264
# Rjet =      0.400
# order = NNLL
# pdf name and set = PDF4LHC15_nnlo_mc.LHgrid,    0
# matching scheme = a
# total cross sections [nb] at LO, NLOdiff, NNLOdiff, N3LOdiff =     0.012945    0.016716    0.010146    0.003834
#----------------------------------------------------------------------
# the lines that follow give the jet-veto efficiencies as a function of pt
#         pt            matched eff      resummed eff     fixed-order eff
   2.00000000E+001   4.73338046E-001   5.77431012E-001   4.60774143E-001
   2.50000000E+001   5.62635492E-001   6.67650620E-001   5.45786875E-001
   3.00000000E+001   6.37333395E-001   7.31320083E-001   6.17068533E-001
   3.50000000E+001   6.95169514E-001   7.75917817E-001   6.72113648E-001
   4.00000000E+001   7.41546448E-001   8.06712170E-001   7.16667414E-001
   4.50000000E+001   7.78645390E-001   8.27385224E-001   7.52873009E-001
   5.00000000E+001   8.09556635E-001   8.40563822E-001   7.83562730E-001
   5.50000000E+001   8.35490854E-001   8.48160694E-001   8.09784074E-001
   6.00000000E+001   8.56841707E-001   8.51581511E-001   8.31871310E-001
   6.50000000E+001   8.75610863E-001   8.51880639E-001   8.51599627E-001
   7.00000000E+001   8.90978569E-001   8.49870957E-001   8.68219188E-001
   7.50000000E+001   9.03279191E-001   8.46187757E-001   8.82015993E-001
   8.00000000E+001   9.13812573E-001   8.41337528E-001   8.94125116E-001
   8.50000000E+001   9.23176401E-001   8.35727751E-001   9.05069202E-001
   9.00000000E+001   9.30915424E-001   8.29688262E-001   9.14424589E-001
   9.50000000E+001   9.37921071E-001   8.23482342E-001   9.22983790E-001
   1.00000000E+002   9.43525289E-001   8.17318671E-001   9.30122626E-001
   1.05000000E+002   9.48488032E-001   8.11357236E-001   9.36529413E-001
   1.10000000E+002   9.52936316E-001   8.05714387E-001   9.42317122E-001
   1.15000000E+002   9.56884847E-001   8.00469092E-001   9.47498999E-001
   1.20000000E+002   9.60270915E-001   7.95667157E-001   9.52012685E-001
   1.25000000E+002   9.63151531E-001   7.91327312E-001   9.55913202E-001
   1.30000000E+002   9.66158441E-001   7.87447089E-001   9.59813209E-001
   1.35000000E+002   9.68804957E-001   7.84008468E-001   9.63254687E-001
   1.40000000E+002   9.70971180E-001   7.80982976E-001   9.66126784E-001
   1.45000000E+002   9.73120167E-001   7.78335972E-001   9.68889494E-001
   1.50000000E+002   9.74917885E-001   7.76030063E-001   9.71225357E-001
   1.55000000E+002   9.76964005E-001   7.74027555E-001   9.73731807E-001
   1.60000000E+002   9.78266814E-001   7.72292154E-001   9.75444349E-001
   1.65000000E+002   9.79755748E-001   7.70790093E-001   9.77283286E-001
   1.70000000E+002   9.81073050E-001   7.69490664E-001   9.78904621E-001
   1.75000000E+002   9.82392292E-001   7.68366435E-001   9.80485847E-001
   1.80000000E+002   9.83620427E-001   7.67393226E-001   9.81941189E-001
   1.85000000E+002   9.84733055E-001   7.66549935E-001   9.83251126E-001
   1.90000000E+002   9.85478913E-001   7.65818282E-001   9.84170523E-001
   1.95000000E+002   9.86522265E-001   7.65182518E-001   9.85362313E-001
   2.00000000E+002   9.87413498E-001   7.64629129E-001   9.86383405E-001
   2.05000000E+002   9.88176449E-001   7.64146549E-001   9.87260065E-001
   2.10000000E+002   9.88873238E-001   7.63724891E-001   9.88056295E-001
   2.15000000E+002   9.89664687E-001   7.63355718E-001   9.88934225E-001
   2.20000000E+002   9.90233565E-001   7.63031827E-001   9.89579737E-001
   2.25000000E+002   9.90847887E-001   7.62747066E-001   9.90261153E-001
   2.30000000E+002   9.91428515E-001   7.62496181E-001   9.90900921E-001
   2.35000000E+002   9.91977140E-001   7.62274678E-001   9.91501805E-001
   2.40000000E+002   9.92352020E-001   7.62078708E-001   9.91923260E-001
   2.45000000E+002   9.92860835E-001   7.61904970E-001   9.92473011E-001
