# ./jetvheto -in n3lo-fixed-order/H125-LHC13-R04-mb-475-mt-1725-xmur025-xmuf050-log.fxd -xQ 0.5 -out benchmarks-n3lo-smallR/H125-LHC13-R04-mb-475-mt-1725-xmur025-xmuf050-xQ050-NNLO+NNLLb.R0-1.0.res -scheme b -order 2 -ptmax 500.01 -fixed_order 2 -small-r -loop-mass t+b -R0 1.0
# process = H    
# collider = pp   
# rts =  13000.000
# M   =    125.000
# muR =     31.250
# muF =     62.500
# Q   =     62.500
# p   =      5.000
# include_c1_squared =   F
# loop_mass  = t+b 
# alphas(MZ) =    0.11800
# alphas(M) =    0.11264
# alphas(muR) =    0.14091
# Rjet =      0.400
# order = NNLL
# pdf name and set = PDF4LHC15_nnlo_mc.LHgrid,    0
# matching scheme = b
# total cross sections [nb] at LO, NLOdiff, NNLOdiff, N3LOdiff =     0.017683    0.024805    0.005009   -0.002663
#----------------------------------------------------------------------
# the lines that follow give the jet-veto efficiencies as a function of pt
#         pt            matched eff      resummed eff     fixed-order eff
   2.00000000E+001   4.40855182E-001   4.71791561E-001   3.45013482E-001
   2.50000000E+001   5.22315506E-001   5.35384034E-001   4.46678028E-001
   3.00000000E+001   5.88028424E-001   5.79159616E-001   5.28145480E-001
   3.50000000E+001   6.41611420E-001   6.08899221E-001   5.94218939E-001
   4.00000000E+001   6.85788689E-001   6.28649542E-001   6.48501749E-001
   4.50000000E+001   7.23031043E-001   6.41322794E-001   6.93918270E-001
   5.00000000E+001   7.54733299E-001   6.49101409E-001   7.32217372E-001
   5.50000000E+001   7.81922680E-001   6.53635148E-001   7.64650938E-001
   6.00000000E+001   8.05566236E-001   6.56133625E-001   7.92387018E-001
   6.50000000E+001   8.26295226E-001   6.57429029E-001   8.16263144E-001
   7.00000000E+001   8.44714233E-001   6.58054789E-001   8.37069884E-001
   7.50000000E+001   8.60828222E-001   6.58328376E-001   8.54982301E-001
   8.00000000E+001   8.75226158E-001   6.58426698E-001   8.70729506E-001
   8.50000000E+001   8.88080058E-001   6.58443020E-001   8.84596193E-001
   9.00000000E+001   8.99469039E-001   6.58424505E-001   8.96749054E-001
   9.50000000E+001   9.09516036E-001   6.58393869E-001   9.07374553E-001
   1.00000000E+002   9.18566184E-001   6.58361450E-001   9.16865875E-001
   1.05000000E+002   9.26587484E-001   6.58331544E-001   9.25226146E-001
   1.10000000E+002   9.33758871E-001   6.58305589E-001   9.32660346E-001
   1.15000000E+002   9.40205941E-001   6.58283744E-001   9.39312551E-001
   1.20000000E+002   9.45979702E-001   6.58265647E-001   9.45247859E-001
   1.25000000E+002   9.51223116E-001   6.58250770E-001   9.50619386E-001
   1.30000000E+002   9.55855533E-001   6.58238577E-001   9.55354243E-001
   1.35000000E+002   9.60060940E-001   6.58228586E-001   9.59642145E-001
   1.40000000E+002   9.63872624E-001   6.58220384E-001   9.63520673E-001
   1.45000000E+002   9.67285251E-001   6.58213632E-001   9.66987843E-001
   1.50000000E+002   9.70414475E-001   6.58208055E-001   9.70161843E-001
   1.55000000E+002   9.73230374E-001   6.58203431E-001   9.73014721E-001
   1.60000000E+002   9.75776736E-001   6.58199580E-001   9.75591796E-001
   1.65000000E+002   9.78061879E-001   6.58196361E-001   9.77902582E-001
   1.70000000E+002   9.80149387E-001   6.58193658E-001   9.80011610E-001
   1.75000000E+002   9.82079904E-001   6.58191379E-001   9.81960264E-001
   1.80000000E+002   9.83783569E-001   6.58189449E-001   9.83679291E-001
   1.85000000E+002   9.85363575E-001   6.58187809E-001   9.85272360E-001
   1.90000000E+002   9.86803139E-001   6.58186410E-001   9.86723082E-001
   1.95000000E+002   9.88100176E-001   6.58185211E-001   9.88029685E-001
   2.00000000E+002   9.89277571E-001   6.58184181E-001   9.89215313E-001
   2.05000000E+002   9.90365345E-001   6.58183293E-001   9.90310198E-001
   2.10000000E+002   9.91321613E-001   6.58182524E-001   9.91272628E-001
   2.15000000E+002   9.92235789E-001   6.58181856E-001   9.92192159E-001
   2.20000000E+002   9.93070801E-001   6.58181274E-001   9.93031843E-001
   2.25000000E+002   9.93785541E-001   6.58180766E-001   9.93750669E-001
   2.30000000E+002   9.94508298E-001   6.58180321E-001   9.94477010E-001
   2.35000000E+002   9.95118352E-001   6.58179930E-001   9.95090217E-001
   2.40000000E+002   9.95689961E-001   6.58179586E-001   9.95664606E-001
   2.45000000E+002   9.96205257E-001   6.58179282E-001   9.96182360E-001
