# ./jetvheto -in n3lo-fixed-order/H125-LHC13-R04-mb-0-mt-1725-xmur200-xmuf100-log.fxd -xQ 0.5 -out benchmarks-n3lo-smallR/H125-LHC13-R04-mb-0-mt-1725-xmur200-xmuf100-xQ050-N3LO+NNLLb.R0-1.5.res -scheme b -order 2 -ptmax 500.01 -small-r -fixed_order 3 -loop-mass t -R0 1.5
# process = H    
# collider = pp   
# rts =  13000.000
# M   =    125.000
# muR =    250.000
# muF =    125.000
# Q   =     62.500
# p   =      5.000
# include_c1_squared =   F
# loop_mass  = t   
# alphas(MZ) =    0.11800
# alphas(M) =    0.11264
# alphas(muR) =    0.10244
# Rjet =      0.400
# order = NNLL
# pdf name and set = PDF4LHC15_nnlo_mc.LHgrid,    0
# matching scheme = b
# total cross sections [nb] at LO, NLOdiff, NNLOdiff, N3LOdiff =     0.011501    0.015066    0.010526    0.005600
#----------------------------------------------------------------------
# the lines that follow give the jet-veto efficiencies as a function of pt
#         pt            matched eff      resummed eff     fixed-order eff
   2.00000000E+001   4.44605669E-001   5.38230550E-001   4.13869553E-001
   2.50000000E+001   5.29328685E-001   6.24290122E-001   5.08802619E-001
   3.00000000E+001   5.99936367E-001   6.85769582E-001   5.85793323E-001
   3.50000000E+001   6.56214488E-001   7.29172522E-001   6.45743736E-001
   4.00000000E+001   7.02228692E-001   7.59275443E-001   6.94202670E-001
   4.50000000E+001   7.39890355E-001   7.79658366E-001   7.33629119E-001
   5.00000000E+001   7.71764010E-001   7.93071860E-001   7.66872624E-001
   5.50000000E+001   7.98933332E-001   8.01645281E-001   7.95126194E-001
   6.00000000E+001   8.21975807E-001   8.06993333E-001   8.19023976E-001
   6.50000000E+001   8.42356803E-001   8.10280111E-001   8.40080780E-001
   7.00000000E+001   8.59671256E-001   8.12293532E-001   8.57918516E-001
   7.50000000E+001   8.74370783E-001   8.13537009E-001   8.73019019E-001
   8.00000000E+001   8.87313165E-001   8.14318354E-001   8.86267566E-001
   8.50000000E+001   8.98912298E-001   8.14820748E-001   8.98099833E-001
   9.00000000E+001   9.08935175E-001   8.15152272E-001   9.08299567E-001
   9.50000000E+001   9.18019707E-001   8.15376903E-001   9.17519023E-001
   1.00000000E+002   9.25793761E-001   8.15533020E-001   9.25396247E-001
   1.05000000E+002   9.32763673E-001   8.15644099E-001   9.32445635E-001
   1.10000000E+002   9.39000991E-001   8.15724830E-001   9.38744628E-001
   1.15000000E+002   9.44631314E-001   8.15784632E-001   9.44423095E-001
   1.20000000E+002   9.49570421E-001   8.15829684E-001   9.49400094E-001
   1.25000000E+002   9.53914789E-001   8.15864139E-001   9.53774485E-001
   1.30000000E+002   9.58130343E-001   8.15890842E-001   9.58014030E-001
   1.35000000E+002   9.61847309E-001   8.15911788E-001   9.61750279E-001
   1.40000000E+002   9.65061975E-001   8.15928395E-001   9.64980558E-001
   1.45000000E+002   9.68091636E-001   8.15941690E-001   9.68022931E-001
   1.50000000E+002   9.70706029E-001   8.15952427E-001   9.70647752E-001
   1.55000000E+002   9.73389302E-001   8.15961170E-001   9.73339626E-001
   1.60000000E+002   9.75406397E-001   8.15968340E-001   9.75363845E-001
   1.65000000E+002   9.77443593E-001   8.15974262E-001   9.77406984E-001
   1.70000000E+002   9.79255351E-001   8.15979184E-001   9.79223721E-001
   1.75000000E+002   9.80970502E-001   8.15983297E-001   9.80943066E-001
   1.80000000E+002   9.82550367E-001   8.15986755E-001   9.82526477E-001
   1.85000000E+002   9.83975019E-001   8.15989676E-001   9.83954143E-001
   1.90000000E+002   9.85081039E-001   8.15992156E-001   9.85062731E-001
   1.95000000E+002   9.86341509E-001   8.15994270E-001   9.86325403E-001
   2.00000000E+002   9.87435246E-001   8.15996081E-001   9.87421032E-001
   2.05000000E+002   9.88403295E-001   8.15997637E-001   9.88390712E-001
   2.10000000E+002   9.89272916E-001   8.15998981E-001   9.89261746E-001
   2.15000000E+002   9.90176990E-001   8.16000145E-001   9.90167048E-001
   2.20000000E+002   9.90892260E-001   8.16001156E-001   9.90883388E-001
   2.25000000E+002   9.91609174E-001   8.16002038E-001   9.91601237E-001
   2.30000000E+002   9.92276091E-001   8.16002810E-001   9.92268973E-001
   2.35000000E+002   9.92895690E-001   8.16003486E-001   9.92889292E-001
   2.40000000E+002   9.93363105E-001   8.16004082E-001   9.93357342E-001
   2.45000000E+002   9.93913087E-001   8.16004607E-001   9.93907885E-001
