# ./jetvheto -in n3lo-fixed-order/H125-LHC13-R04-heft-xmur100-xmuf100-log.fxd -xQ 0.25 -out benchmarks-n3lo-smallR/H125-LHC13-R04-heft-xmur100-xmuf100-xQ025-NNLO+NNLLb.R0-1.0.res -scheme b -order 2 -ptmax 500.01 -fixed_order 2 -small-r -R0 1.0
# process = H    
# collider = pp   
# rts =  13000.000
# M   =    125.000
# muR =    125.000
# muF =    125.000
# Q   =     31.250
# p   =      5.000
# include_c1_squared =   F
# loop_mass  = none
# alphas(MZ) =    0.11800
# alphas(M) =    0.11264
# alphas(muR) =    0.11264
# Rjet =      0.400
# order = NNLL
# pdf name and set = PDF4LHC15_nnlo_mc.LHgrid,    0
# matching scheme = b
# total cross sections [nb] at LO, NLOdiff, NNLOdiff, N3LOdiff =     0.012945    0.016716    0.010146    0.003834
#----------------------------------------------------------------------
# the lines that follow give the jet-veto efficiencies as a function of pt
#         pt            matched eff      resummed eff     fixed-order eff
   2.00000000E+001   3.88164858E-001   5.36146831E-001   3.33152974E-001
   2.50000000E+001   4.70456877E-001   6.08198139E-001   4.42354030E-001
   3.00000000E+001   5.40271243E-001   6.50572225E-001   5.26280770E-001
   3.50000000E+001   5.99543966E-001   6.73630041E-001   5.92590428E-001
   4.00000000E+001   6.49951090E-001   6.85741240E-001   6.46413459E-001
   4.50000000E+001   6.92523094E-001   6.92141514E-001   6.90650611E-001
   5.00000000E+001   7.28672231E-001   6.95627711E-001   7.27636368E-001
   5.50000000E+001   7.59422892E-001   6.97602939E-001   7.58824117E-001
   6.00000000E+001   7.85869170E-001   6.98768159E-001   7.85509225E-001
   6.50000000E+001   8.08726039E-001   6.99482063E-001   8.08501674E-001
   7.00000000E+001   8.28452897E-001   6.99934703E-001   8.28308351E-001
   7.50000000E+001   8.45698517E-001   7.00230601E-001   8.45602652E-001
   8.00000000E+001   8.60807851E-001   7.00429361E-001   8.60742611E-001
   8.50000000E+001   8.74028405E-001   7.00566137E-001   8.73982907E-001
   9.00000000E+001   8.85795258E-001   7.00662308E-001   8.85762882E-001
   9.50000000E+001   8.96152549E-001   7.00731245E-001   8.96129047E-001
   1.00000000E+002   9.05364986E-001   7.00781526E-001   9.05347624E-001
   1.05000000E+002   9.13587752E-001   7.00818778E-001   9.13574722E-001
   1.10000000E+002   9.20899259E-001   7.00846771E-001   9.20889329E-001
   1.15000000E+002   9.27503445E-001   7.00868082E-001   9.27495781E-001
   1.20000000E+002   9.33413554E-001   7.00884498E-001   9.33407561E-001
   1.25000000E+002   9.38744569E-001   7.00897282E-001   9.38739831E-001
   1.30000000E+002   9.43548073E-001   7.00907337E-001   9.43544289E-001
   1.35000000E+002   9.47925078E-001   7.00915318E-001   9.47922026E-001
   1.40000000E+002   9.51835793E-001   7.00921709E-001   9.51833307E-001
   1.45000000E+002   9.55459972E-001   7.00926867E-001   9.55457933E-001
   1.50000000E+002   9.58688182E-001   7.00931060E-001   9.58686494E-001
   1.55000000E+002   9.61651930E-001   7.00934493E-001   9.61650523E-001
   1.60000000E+002   9.64381338E-001   7.00937321E-001   9.64380158E-001
   1.65000000E+002   9.66854275E-001   7.00939666E-001   9.66853279E-001
   1.70000000E+002   9.69147381E-001   7.00941620E-001   9.69146535E-001
   1.75000000E+002   9.71219079E-001   7.00943259E-001   9.71218357E-001
   1.80000000E+002   9.73146667E-001   7.00944639E-001   9.73146048E-001
   1.85000000E+002   9.74898968E-001   7.00945807E-001   9.74898433E-001
   1.90000000E+002   9.76519450E-001   7.00946800E-001   9.76518987E-001
   1.95000000E+002   9.78041784E-001   7.00947648E-001   9.78041382E-001
   2.00000000E+002   9.79433356E-001   7.00948376E-001   9.79433004E-001
   2.05000000E+002   9.80726908E-001   7.00949001E-001   9.80726600E-001
   2.10000000E+002   9.81913175E-001   7.00949542E-001   9.81912904E-001
   2.15000000E+002   9.82997488E-001   7.00950011E-001   9.82997248E-001
   2.20000000E+002   9.84019098E-001   7.00950418E-001   9.84018885E-001
   2.25000000E+002   9.84962234E-001   7.00950774E-001   9.84962045E-001
   2.30000000E+002   9.85842719E-001   7.00951085E-001   9.85842551E-001
   2.35000000E+002   9.86681155E-001   7.00951358E-001   9.86681004E-001
   2.40000000E+002   9.87439476E-001   7.00951598E-001   9.87439341E-001
   2.45000000E+002   9.88156264E-001   7.00951811E-001   9.88156143E-001
