# ./jetvheto -in n3lo-fixed-order/H125-LHC13-R04-mb-0-mt-1725-xmur050-xmuf050-log.fxd -xQ 0.333 -out benchmarks-n3lo-smallR/H125-LHC13-R04-mb-0-mt-1725-xmur050-xmuf050-xQ033-NNLO+NNLLb.res -scheme b -order 2 -ptmax 500.01 -fixed_order 2 -loop-mass t
# process = H    
# collider = pp   
# rts =  13000.000
# M   =    125.000
# muR =     62.500
# muF =     62.500
# Q   =     41.625
# p   =      5.000
# include_c1_squared =   F
# loop_mass  = t   
# alphas(MZ) =    0.11800
# alphas(M) =    0.11264
# alphas(muR) =    0.12516
# Rjet =      0.400
# order = NNLL
# pdf name and set = PDF4LHC15_nnlo_mc.LHgrid,    0
# matching scheme = b
# total cross sections [nb] at LO, NLOdiff, NNLOdiff, N3LOdiff =     0.015885    0.020561    0.008998    0.001413
#----------------------------------------------------------------------
# the lines that follow give the jet-veto efficiencies as a function of pt
#         pt            matched eff      resummed eff     fixed-order eff
   2.00000000E+001   4.04571556E-001   4.88248833E-001   3.37968833E-001
   2.50000000E+001   4.87601083E-001   5.65335583E-001   4.45490403E-001
   3.00000000E+001   5.55659238E-001   6.17611392E-001   5.29094091E-001
   3.50000000E+001   6.12488026E-001   6.51549773E-001   5.95850260E-001
   4.00000000E+001   6.60488357E-001   6.72660283E-001   6.50115846E-001
   4.50000000E+001   7.01432844E-001   6.85401504E-001   6.94939270E-001
   5.00000000E+001   7.36889759E-001   6.93009126E-001   7.32769177E-001
   5.50000000E+001   7.67028298E-001   6.97583442E-001   7.64361916E-001
   6.00000000E+001   7.93232079E-001   7.00385147E-001   7.91465371E-001
   6.50000000E+001   8.16037211E-001   7.02143078E-001   8.14838120E-001
   7.00000000E+001   8.35911410E-001   7.03274876E-001   8.35078651E-001
   7.50000000E+001   8.53162149E-001   7.04022229E-001   8.52570605E-001
   8.00000000E+001   8.68366112E-001   7.04527637E-001   8.67937405E-001
   8.50000000E+001   8.81794642E-001   7.04877040E-001   8.81478135E-001
   9.00000000E+001   8.93649436E-001   7.05123510E-001   8.93411828E-001
   9.50000000E+001   9.04049203E-001   7.05300592E-001   9.03868009E-001
   1.00000000E+002   9.13406077E-001   7.05429964E-001   9.13265993E-001
   1.05000000E+002   9.21599086E-001   7.05525931E-001   9.21489390E-001
   1.10000000E+002   9.28934718E-001   7.05598113E-001   9.28847842E-001
   1.15000000E+002   9.35520831E-001   7.05653101E-001   9.35451292E-001
   1.20000000E+002   9.41449686E-001   7.05695482E-001   9.41393487E-001
   1.25000000E+002   9.46836276E-001   7.05728499E-001   9.46790455E-001
   1.30000000E+002   9.51594005E-001   7.05754476E-001   9.51556334E-001
   1.35000000E+002   9.55893232E-001   7.05775103E-001   9.55862035E-001
   1.40000000E+002   9.59814726E-001   7.05791622E-001   9.59788706E-001
   1.45000000E+002   9.63378805E-001   7.05804955E-001   9.63356960E-001
   1.50000000E+002   9.66642189E-001   7.05815796E-001   9.66623739E-001
   1.55000000E+002   9.69575148E-001   7.05824672E-001   9.69559478E-001
   1.60000000E+002   9.72241531E-001   7.05831987E-001   9.72228153E-001
   1.65000000E+002   9.74650688E-001   7.05838050E-001   9.74639208E-001
   1.70000000E+002   9.76866976E-001   7.05843106E-001   9.76857081E-001
   1.75000000E+002   9.78878224E-001   7.05847344E-001   9.78869658E-001
   1.80000000E+002   9.80689909E-001   7.05850913E-001   9.80682463E-001
   1.85000000E+002   9.82368226E-001   7.05853935E-001   9.82361728E-001
   1.90000000E+002   9.83902521E-001   7.05856504E-001   9.83896830E-001
   1.95000000E+002   9.85301974E-001   7.05858698E-001   9.85296972E-001
   2.00000000E+002   9.86582768E-001   7.05860579E-001   9.86578358E-001
   2.05000000E+002   9.87756570E-001   7.05862198E-001   9.87752669E-001
   2.10000000E+002   9.88807910E-001   7.05863597E-001   9.88804449E-001
   2.15000000E+002   9.89803006E-001   7.05864809E-001   9.89799927E-001
   2.20000000E+002   9.90712188E-001   7.05865864E-001   9.90709441E-001
   2.25000000E+002   9.91519503E-001   7.05866783E-001   9.91517046E-001
   2.30000000E+002   9.92312703E-001   7.05867589E-001   9.92310501E-001
   2.35000000E+002   9.92994864E-001   7.05868295E-001   9.92992886E-001
   2.40000000E+002   9.93639985E-001   7.05868917E-001   9.93638203E-001
   2.45000000E+002   9.94229975E-001   7.05869466E-001   9.94228366E-001
