# ./jetvheto -in n3lo-fixed-order/H125-LHC13-R04-heft-xmur050-xmuf050-log.fxd -xQ 1.00 -out benchmarks-n3lo-smallR/H125-LHC13-R04-heft-xmur050-xmuf050-xQ100-NNLO+NNLLa.res -scheme a -order 2 -ptmax 500.01 -fixed_order 2
# process = H    
# collider = pp   
# rts =  13000.000
# M   =    125.000
# muR =     62.500
# muF =     62.500
# Q   =    125.000
# p   =      5.000
# include_c1_squared =   F
# loop_mass  = none
# alphas(MZ) =    0.11800
# alphas(M) =    0.11264
# alphas(muR) =    0.12516
# Rjet =      0.400
# order = NNLL
# pdf name and set = PDF4LHC15_nnlo_mc.LHgrid,    0
# matching scheme = a
# total cross sections [nb] at LO, NLOdiff, NNLOdiff, N3LOdiff =     0.015055    0.019611    0.008998    0.001413
#----------------------------------------------------------------------
# the lines that follow give the jet-veto efficiencies as a function of pt
#         pt            matched eff      resummed eff     fixed-order eff
   2.00000000E+001   5.23451870E-001   5.91506781E-001   4.60803594E-001
   2.50000000E+001   6.13347411E-001   6.75930528E-001   5.46887027E-001
   3.00000000E+001   6.83086261E-001   7.34201982E-001   6.14137214E-001
   3.50000000E+001   7.37588927E-001   7.74023913E-001   6.67697748E-001
   4.00000000E+001   7.80889886E-001   8.00727668E-001   7.11386119E-001
   4.50000000E+001   8.15592724E-001   8.17943590E-001   7.47572136E-001
   5.00000000E+001   8.43621275E-001   8.28213232E-001   7.77943884E-001
   5.50000000E+001   8.66359736E-001   8.33366079E-001   8.03669340E-001
   6.00000000E+001   8.84797194E-001   8.34735587E-001   8.25569926E-001
   6.50000000E+001   8.99921272E-001   8.33321102E-001   8.44466421E-001
   7.00000000E+001   9.12408712E-001   8.29888930E-001   8.60904291E-001
   7.50000000E+001   9.22562984E-001   8.25029597E-001   8.75107581E-001
   8.00000000E+001   9.30994280E-001   8.19208850E-001   8.87583197E-001
   8.50000000E+001   9.38013681E-001   8.12800632E-001   8.98575401E-001
   9.00000000E+001   9.43890044E-001   8.06105950E-001   9.08294278E-001
   9.50000000E+001   9.48754908E-001   7.99364616E-001   9.16831850E-001
   1.00000000E+002   9.52905460E-001   7.92765867E-001   9.24436265E-001
   1.05000000E+002   9.56419782E-001   7.86452779E-001   9.31164894E-001
   1.10000000E+002   9.59512506E-001   7.80527416E-001   9.37208272E-001
   1.15000000E+002   9.62217533E-001   7.75056321E-001   9.42595447E-001
   1.20000000E+002   9.64660295E-001   7.70074157E-001   9.47451332E-001
   1.25000000E+002   9.66882892E-001   7.65590435E-001   9.51826691E-001
   1.30000000E+002   9.68888133E-001   7.61595283E-001   9.55739978E-001
   1.35000000E+002   9.70770387E-001   7.58064692E-001   9.59300155E-001
   1.40000000E+002   9.72526520E-001   7.54965390E-001   9.62525156E-001
   1.45000000E+002   9.74136646E-001   7.52258930E-001   9.65416341E-001
   1.50000000E+002   9.75681242E-001   7.49904891E-001   9.68073453E-001
   1.55000000E+002   9.77112470E-001   7.47863220E-001   9.70469565E-001
   1.60000000E+002   9.78480641E-001   7.46095805E-001   9.72672954E-001
   1.65000000E+002   9.79744415E-001   7.44567386E-001   9.74659615E-001
   1.70000000E+002   9.80957919E-001   7.43246136E-001   9.76498194E-001
   1.75000000E+002   9.82111946E-001   7.42103772E-001   9.78193000E-001
   1.80000000E+002   9.83174062E-001   7.41115409E-001   9.79723719E-001
   1.85000000E+002   9.84180426E-001   7.40259389E-001   9.81136260E-001
   1.90000000E+002   9.85130469E-001   7.39516990E-001   9.82438890E-001
   1.95000000E+002   9.86010487E-001   7.38872112E-001   9.83625593E-001
   2.00000000E+002   9.86838443E-001   7.38310956E-001   9.84720691E-001
   2.05000000E+002   9.87628020E-001   7.37821727E-001   9.85743353E-001
   2.10000000E+002   9.88353480E-001   7.37394356E-001   9.86672717E-001
   2.15000000E+002   9.89047215E-001   7.37020252E-001   9.87545040E-001
   2.20000000E+002   9.89698065E-001   7.36692090E-001   9.88352698E-001
   2.25000000E+002   9.90284152E-001   7.36403616E-001   9.89076840E-001
   2.30000000E+002   9.90877348E-001   7.36149493E-001   9.89791617E-001
   2.35000000E+002   9.91400057E-001   7.35925157E-001   9.90421838E-001
   2.40000000E+002   9.91902066E-001   7.35726699E-001   9.91019008E-001
   2.45000000E+002   9.92372748E-001   7.35550772E-001   9.91574107E-001
