# ./jetvheto -in n3lo-fixed-order/H125-LHC13-R04-mb-475-mt-1725-xmur050-xmuf050-log.fxd -xQ 0.125 -out benchmarks-n3lo-smallR/H125-LHC13-R04-mb-475-mt-1725-xmur050-xmuf050-xQ125-NNLO+NNLLb.R0-1.0.res -scheme b -order 2 -ptmax 500.01 -fixed_order 2 -small-r -loop-mass t+b -R0 1.0
# process = H    
# collider = pp   
# rts =  13000.000
# M   =    125.000
# muR =     62.500
# muF =     62.500
# Q   =     15.625
# p   =      5.000
# include_c1_squared =   F
# loop_mass  = t+b 
# alphas(MZ) =    0.11800
# alphas(M) =    0.11264
# alphas(muR) =    0.12516
# Rjet =      0.400
# order = NNLL
# pdf name and set = PDF4LHC15_nnlo_mc.LHgrid,    0
# matching scheme = b
# total cross sections [nb] at LO, NLOdiff, NNLOdiff, N3LOdiff =     0.014147    0.020254    0.008998    0.001413
#----------------------------------------------------------------------
# the lines that follow give the jet-veto efficiencies as a function of pt
#         pt            matched eff      resummed eff     fixed-order eff
   2.00000000E+001   3.18339255E-001   4.21785199E-001   3.08135668E-001
   2.50000000E+001   4.19990451E-001   4.35646227E-001   4.16958718E-001
   3.00000000E+001   5.03489690E-001   4.40163030E-001   5.02459671E-001
   3.50000000E+001   5.71590003E-001   4.41855556E-001   5.71196452E-001
   4.00000000E+001   6.27525484E-001   4.42575703E-001   6.27360842E-001
   4.50000000E+001   6.74368780E-001   4.42915348E-001   6.74295094E-001
   5.00000000E+001   7.13850970E-001   4.43089299E-001   7.13816378E-001
   5.50000000E+001   7.47324153E-001   4.43184535E-001   7.47307378E-001
   6.00000000E+001   7.76020586E-001   4.43239614E-001   7.76012324E-001
   6.50000000E+001   8.00755786E-001   4.43272962E-001   8.00751743E-001
   7.00000000E+001   8.22343895E-001   4.43293950E-001   8.22342000E-001
   7.50000000E+001   8.41025041E-001   4.43307605E-001   8.41024239E-001
   8.00000000E+001   8.57482007E-001   4.43316748E-001   8.57481768E-001
   8.50000000E+001   8.72028166E-001   4.43323027E-001   8.72028209E-001
   9.00000000E+001   8.84788288E-001   4.43327436E-001   8.84788465E-001
   9.50000000E+001   8.96029847E-001   4.43330592E-001   8.96030076E-001
   1.00000000E+002   9.06087852E-001   4.43332893E-001   9.06088095E-001
   1.05000000E+002   9.15022639E-001   4.43334596E-001   9.15022873E-001
   1.10000000E+002   9.22967362E-001   4.43335876E-001   9.22967578E-001
   1.15000000E+002   9.30123330E-001   4.43336850E-001   9.30123525E-001
   1.20000000E+002   9.36525022E-001   4.43337600E-001   9.36525194E-001
   1.25000000E+002   9.42341827E-001   4.43338184E-001   9.42341979E-001
   1.30000000E+002   9.47512544E-001   4.43338643E-001   9.47512677E-001
   1.35000000E+002   9.52192591E-001   4.43339007E-001   9.52192707E-001
   1.40000000E+002   9.56453418E-001   4.43339299E-001   9.56453519E-001
   1.45000000E+002   9.60291167E-001   4.43339535E-001   9.60291255E-001
   1.50000000E+002   9.63805887E-001   4.43339726E-001   9.63805964E-001
   1.55000000E+002   9.66986748E-001   4.43339883E-001   9.66986816E-001
   1.60000000E+002   9.69872317E-001   4.43340012E-001   9.69872376E-001
   1.65000000E+002   9.72479867E-001   4.43340119E-001   9.72479918E-001
   1.70000000E+002   9.74856879E-001   4.43340208E-001   9.74856924E-001
   1.75000000E+002   9.77058150E-001   4.43340283E-001   9.77058190E-001
   1.80000000E+002   9.79026075E-001   4.43340346E-001   9.79026110E-001
   1.85000000E+002   9.80854987E-001   4.43340399E-001   9.80855018E-001
   1.90000000E+002   9.82521055E-001   4.43340445E-001   9.82521082E-001
   1.95000000E+002   9.84037740E-001   4.43340483E-001   9.84037765E-001
   2.00000000E+002   9.85420694E-001   4.43340516E-001   9.85420716E-001
   2.05000000E+002   9.86697201E-001   4.43340545E-001   9.86697220E-001
   2.10000000E+002   9.87836805E-001   4.43340570E-001   9.87836822E-001
   2.15000000E+002   9.88919531E-001   4.43340591E-001   9.88919546E-001
   2.20000000E+002   9.89913061E-001   4.43340610E-001   9.89913075E-001
   2.25000000E+002   9.90786644E-001   4.43340626E-001   9.90786656E-001
   2.30000000E+002   9.91640348E-001   4.43340640E-001   9.91640359E-001
   2.35000000E+002   9.92384737E-001   4.43340653E-001   9.92384747E-001
   2.40000000E+002   9.93082560E-001   4.43340664E-001   9.93082569E-001
   2.45000000E+002   9.93711863E-001   4.43340673E-001   9.93711871E-001
