# ./jetvheto -in n3lo-fixed-order/H125-LHC13-R04-mb-0-mt-1725-xmur025-xmuf025-log.fxd -xQ 0.5 -out benchmarks-n3lo-smallR/H125-LHC13-R04-mb-0-mt-1725-xmur025-xmuf025-xQ050-NNLO+NNLLb.R0-1.5.res -scheme b -order 2 -ptmax 500.01 -small-r -fixed_order 2 -loop-mass t -R0 1.5
# process = H    
# collider = pp   
# rts =  13000.000
# M   =    125.000
# muR =     31.250
# muF =     31.250
# Q   =     62.500
# p   =      5.000
# include_c1_squared =   F
# loop_mass  = t   
# alphas(MZ) =    0.11800
# alphas(M) =    0.11264
# alphas(muR) =    0.14091
# Rjet =      0.400
# order = NNLL
# pdf name and set = PDF4LHC15_nnlo_mc.LHgrid,    0
# matching scheme = b
# total cross sections [nb] at LO, NLOdiff, NNLOdiff, N3LOdiff =     0.018140    0.025356    0.006043   -0.002471
#----------------------------------------------------------------------
# the lines that follow give the jet-veto efficiencies as a function of pt
#         pt            matched eff      resummed eff     fixed-order eff
   2.00000000E+001   4.65377369E-001   5.04300905E-001   3.51600386E-001
   2.50000000E+001   5.42625136E-001   5.70480113E-001   4.53985492E-001
   3.00000000E+001   6.04426518E-001   6.16405150E-001   5.35336815E-001
   3.50000000E+001   6.55115978E-001   6.47837504E-001   6.01450914E-001
   4.00000000E+001   6.97156178E-001   6.68898417E-001   6.55707630E-001
   4.50000000E+001   7.32568512E-001   6.82560776E-001   7.00809251E-001
   5.00000000E+001   7.62923619E-001   6.91061107E-001   7.38750758E-001
   5.50000000E+001   7.89141383E-001   6.96106988E-001   7.70859819E-001
   6.00000000E+001   8.12135345E-001   6.98959686E-001   7.98354652E-001
   6.50000000E+001   8.32432083E-001   7.00496902E-001   8.22044881E-001
   7.00000000E+001   8.50447920E-001   7.01287054E-001   8.42597642E-001
   7.50000000E+001   8.66212037E-001   7.01672836E-001   8.60248412E-001
   8.00000000E+001   8.80442939E-001   7.01848656E-001   8.75880788E-001
   8.50000000E+001   8.93017655E-001   7.01919357E-001   8.89499593E-001
   9.00000000E+001   9.04265138E-001   7.01939540E-001   9.01528041E-001
   9.50000000E+001   9.14161287E-001   7.01936848E-001   9.12012715E-001
   1.00000000E+002   9.23079628E-001   7.01924911E-001   9.21377846E-001
   1.05000000E+002   9.31083830E-001   7.01910229E-001   9.29724151E-001
   1.10000000E+002   9.38192238E-001   7.01895740E-001   9.37096897E-001
   1.15000000E+002   9.44637439E-001   7.01882637E-001   9.43747922E-001
   1.20000000E+002   9.50396341E-001   7.01871283E-001   9.49668478E-001
   1.25000000E+002   9.55467619E-001   7.01861661E-001   9.54867796E-001
   1.30000000E+002   9.60100748E-001   7.01853605E-001   9.59603121E-001
   1.35000000E+002   9.64267292E-001   7.01846898E-001   9.63851855E-001
   1.40000000E+002   9.68020442E-001   7.01841327E-001   9.67671517E-001
   1.45000000E+002   9.71457225E-001   7.01836699E-001   9.71162513E-001
   1.50000000E+002   9.74506309E-001   7.01832849E-001   9.74256073E-001
   1.55000000E+002   9.77265981E-001   7.01829639E-001   9.77052447E-001
   1.60000000E+002   9.79790614E-001   7.01826954E-001   9.79607538E-001
   1.65000000E+002   9.82081346E-001   7.01824701E-001   9.81923690E-001
   1.70000000E+002   9.84113923E-001   7.01822804E-001   9.83977585E-001
   1.75000000E+002   9.85974225E-001   7.01821200E-001   9.85855855E-001
   1.80000000E+002   9.87661311E-001   7.01819839E-001   9.87558150E-001
   1.85000000E+002   9.89167828E-001   7.01818681E-001   9.89077597E-001
   1.90000000E+002   9.90566321E-001   7.01817691E-001   9.90487132E-001
   1.95000000E+002   9.91850060E-001   7.01816842E-001   9.91780336E-001
   2.00000000E+002   9.92984617E-001   7.01816112E-001   9.92923037E-001
   2.05000000E+002   9.94042865E-001   7.01815481E-001   9.93988317E-001
   2.10000000E+002   9.95015242E-001   7.01814935E-001   9.94966787E-001
   2.15000000E+002   9.95838887E-001   7.01814460E-001   9.95795730E-001
   2.20000000E+002   9.96624082E-001   7.01814047E-001   9.96585546E-001
   2.25000000E+002   9.97347857E-001   7.01813685E-001   9.97313360E-001
   2.30000000E+002   9.97974716E-001   7.01813369E-001   9.97943763E-001
   2.35000000E+002   9.98545069E-001   7.01813090E-001   9.98517235E-001
   2.40000000E+002   9.99051405E-001   7.01812845E-001   9.99026319E-001
   2.45000000E+002   9.99525606E-001   7.01812628E-001   9.99502951E-001
