# ./jetvheto -in n3lo-fixed-order/H125-LHC13-R04-mb-0-mt-1725-xmur050-xmuf050-log.fxd -xQ 0.03125 -out benchmarks-n3lo-smallR/H125-LHC13-R04-mb-0-mt-1725-xmur050-xmuf050-xQ03125-NNLO+NNLLa.res -scheme a -order 2 -ptmax 500.01 -fixed_order 2 -loop-mass t
# process = H    
# collider = pp   
# rts =  13000.000
# M   =    125.000
# muR =     62.500
# muF =     62.500
# Q   =      3.906
# p   =      5.000
# include_c1_squared =   F
# loop_mass  = t   
# alphas(MZ) =    0.11800
# alphas(M) =    0.11264
# alphas(muR) =    0.12516
# Rjet =      0.400
# order = NNLL
# pdf name and set = PDF4LHC15_nnlo_mc.LHgrid,    0
# matching scheme = a
# total cross sections [nb] at LO, NLOdiff, NNLOdiff, N3LOdiff =     0.015885    0.020561    0.008998    0.001413
#----------------------------------------------------------------------
# the lines that follow give the jet-veto efficiencies as a function of pt
#         pt            matched eff      resummed eff     fixed-order eff
   2.00000000E+001   4.69053247E-001  -2.19668931E-001   4.69057413E-001
   2.50000000E+001   5.55285678E-001  -2.19682514E-001   5.55288671E-001
   3.00000000E+001   6.22336282E-001  -2.19686474E-001   6.22338019E-001
   3.50000000E+001   6.75874815E-001  -2.19687904E-001   6.75875821E-001
   4.00000000E+001   7.19395694E-001  -2.19688503E-001   7.19396295E-001
   4.50000000E+001   7.55343874E-001  -2.19688784E-001   7.55344248E-001
   5.00000000E+001   7.85683226E-001  -2.19688928E-001   7.85683467E-001
   5.50000000E+001   8.11020378E-001  -2.19689006E-001   8.11020538E-001
   6.00000000E+001   8.32757137E-001  -2.19689052E-001   8.32757246E-001
   6.50000000E+001   8.51501888E-001  -2.19689079E-001   8.51501964E-001
   7.00000000E+001   8.67734620E-001  -2.19689096E-001   8.67734675E-001
   7.50000000E+001   8.81763013E-001  -2.19689108E-001   8.81763053E-001
   8.00000000E+001   8.94087047E-001  -2.19689115E-001   8.94087077E-001
   8.50000000E+001   9.04946589E-001  -2.19689120E-001   9.04946611E-001
   9.00000000E+001   9.14517301E-001  -2.19689124E-001   9.14517318E-001
   9.50000000E+001   9.22903061E-001  -2.19689126E-001   9.22903074E-001
   1.00000000E+002   9.30440155E-001  -2.19689128E-001   9.30440166E-001
   1.05000000E+002   9.37035242E-001  -2.19689130E-001   9.37035250E-001
   1.10000000E+002   9.42936651E-001  -2.19689131E-001   9.42936658E-001
   1.15000000E+002   9.48232555E-001  -2.19689132E-001   9.48232561E-001
   1.20000000E+002   9.52998139E-001  -2.19689132E-001   9.52998144E-001
   1.25000000E+002   9.57326457E-001  -2.19689133E-001   9.57326460E-001
   1.30000000E+002   9.61148646E-001  -2.19689133E-001   9.61148649E-001
   1.35000000E+002   9.64601777E-001  -2.19689133E-001   9.64601780E-001
   1.40000000E+002   9.67750930E-001  -2.19689134E-001   9.67750932E-001
   1.45000000E+002   9.70612635E-001  -2.19689134E-001   9.70612637E-001
   1.50000000E+002   9.73232561E-001  -2.19689134E-001   9.73232562E-001
   1.55000000E+002   9.75586995E-001  -2.19689134E-001   9.75586996E-001
   1.60000000E+002   9.77727246E-001  -2.19689134E-001   9.77727247E-001
   1.65000000E+002   9.79660890E-001  -2.19689134E-001   9.79660891E-001
   1.70000000E+002   9.81439602E-001  -2.19689134E-001   9.81439603E-001
   1.75000000E+002   9.83053670E-001  -2.19689134E-001   9.83053670E-001
   1.80000000E+002   9.84507522E-001  -2.19689134E-001   9.84507522E-001
   1.85000000E+002   9.85854276E-001  -2.19689135E-001   9.85854277E-001
   1.90000000E+002   9.87085413E-001  -2.19689135E-001   9.87085413E-001
   1.95000000E+002   9.88208314E-001  -2.19689135E-001   9.88208314E-001
   2.00000000E+002   9.89235972E-001  -2.19689135E-001   9.89235973E-001
   2.05000000E+002   9.90177759E-001  -2.19689135E-001   9.90177759E-001
   2.10000000E+002   9.91021276E-001  -2.19689135E-001   9.91021276E-001
   2.15000000E+002   9.91819640E-001  -2.19689135E-001   9.91819641E-001
   2.20000000E+002   9.92549061E-001  -2.19689135E-001   9.92549062E-001
   2.25000000E+002   9.93196753E-001  -2.19689135E-001   9.93196753E-001
   2.30000000E+002   9.93833096E-001  -2.19689135E-001   9.93833097E-001
   2.35000000E+002   9.94380362E-001  -2.19689135E-001   9.94380362E-001
   2.40000000E+002   9.94897900E-001  -2.19689135E-001   9.94897900E-001
   2.45000000E+002   9.95371206E-001  -2.19689135E-001   9.95371206E-001
