# ./jetvheto -in n3lo-fixed-order/H125-LHC13-R04-mb-0-mt-1725-xmur025-xmuf050-log.fxd -xQ 0.0625 -out benchmarks-n3lo-smallR/H125-LHC13-R04-mb-0-mt-1725-xmur025-xmuf050-xQ0625-NNLO+NNLLa.R0-2.0.res -scheme a -order 2 -ptmax 500.01 -small-r -fixed_order 2 -loop-mass t -R0 2.0
# process = H    
# collider = pp   
# rts =  13000.000
# M   =    125.000
# muR =     31.250
# muF =     62.500
# Q   =      7.812
# p   =      5.000
# include_c1_squared =   F
# loop_mass  = t   
# alphas(MZ) =    0.11800
# alphas(M) =    0.11264
# alphas(muR) =    0.14091
# Rjet =      0.400
# order = NNLL
# pdf name and set = PDF4LHC15_nnlo_mc.LHgrid,    0
# matching scheme = a
# total cross sections [nb] at LO, NLOdiff, NNLOdiff, N3LOdiff =     0.019855    0.024744    0.005009   -0.002663
#----------------------------------------------------------------------
# the lines that follow give the jet-veto efficiencies as a function of pt
#         pt            matched eff      resummed eff     fixed-order eff
   2.00000000E+001   4.33016900E-001   3.57330126E-002   4.32957478E-001
   2.50000000E+001   5.23267817E-001   3.58885487E-002   5.23268277E-001
   3.00000000E+001   5.94989829E-001   3.59341280E-002   5.94997758E-001
   3.50000000E+001   6.52845931E-001   3.59506103E-002   6.52852727E-001
   4.00000000E+001   7.00184214E-001   3.59575272E-002   7.00189076E-001
   4.50000000E+001   7.39436539E-001   3.59607697E-002   7.39439888E-001
   5.00000000E+001   7.72594766E-001   3.59624255E-002   7.72597069E-001
   5.50000000E+001   8.00361619E-001   3.59633307E-002   8.00363223E-001
   6.00000000E+001   8.24123908E-001   3.59638537E-002   8.24125039E-001
   6.50000000E+001   8.44588330E-001   3.59641703E-002   8.44589142E-001
   7.00000000E+001   8.62316149E-001   3.59643694E-002   8.62316742E-001
   7.50000000E+001   8.77562435E-001   3.59644989E-002   8.77562874E-001
   8.00000000E+001   8.90937171E-001   3.59645857E-002   8.90937501E-001
   8.50000000E+001   9.02686271E-001   3.59646452E-002   9.02686522E-001
   9.00000000E+001   9.13020638E-001   3.59646870E-002   9.13020832E-001
   9.50000000E+001   9.22017131E-001   3.59647170E-002   9.22017282E-001
   1.00000000E+002   9.30081931E-001   3.59647388E-002   9.30082050E-001
   1.05000000E+002   9.37100955E-001   3.59647549E-002   9.37101049E-001
   1.10000000E+002   9.43373665E-001   3.59647671E-002   9.43373741E-001
   1.15000000E+002   9.48969528E-001   3.59647763E-002   9.48969590E-001
   1.20000000E+002   9.53985523E-001   3.59647834E-002   9.53985574E-001
   1.25000000E+002   9.58523251E-001   3.59647889E-002   9.58523292E-001
   1.30000000E+002   9.62501359E-001   3.59647933E-002   9.62501393E-001
   1.35000000E+002   9.66098647E-001   3.59647968E-002   9.66098675E-001
   1.40000000E+002   9.69356534E-001   3.59647995E-002   9.69356558E-001
   1.45000000E+002   9.72289660E-001   3.59648018E-002   9.72289680E-001
   1.50000000E+002   9.74973996E-001   3.59648036E-002   9.74974013E-001
   1.55000000E+002   9.77372574E-001   3.59648051E-002   9.77372588E-001
   1.60000000E+002   9.79542781E-001   3.59648063E-002   9.79542793E-001
   1.65000000E+002   9.81488147E-001   3.59648073E-002   9.81488158E-001
   1.70000000E+002   9.83277157E-001   3.59648081E-002   9.83277166E-001
   1.75000000E+002   9.84902258E-001   3.59648089E-002   9.84902266E-001
   1.80000000E+002   9.86344482E-001   3.59648095E-002   9.86344489E-001
   1.85000000E+002   9.87677255E-001   3.59648100E-002   9.87677261E-001
   1.90000000E+002   9.88894538E-001   3.59648104E-002   9.88894543E-001
   1.95000000E+002   9.89992453E-001   3.59648108E-002   9.89992458E-001
   2.00000000E+002   9.90991786E-001   3.59648111E-002   9.90991790E-001
   2.05000000E+002   9.91908953E-001   3.59648113E-002   9.91908957E-001
   2.10000000E+002   9.92717180E-001   3.59648116E-002   9.92717184E-001
   2.15000000E+002   9.93486904E-001   3.59648118E-002   9.93486906E-001
   2.20000000E+002   9.94187043E-001   3.59648120E-002   9.94187045E-001
   2.25000000E+002   9.94791285E-001   3.59648121E-002   9.94791288E-001
   2.30000000E+002   9.95405073E-001   3.59648122E-002   9.95405075E-001
   2.35000000E+002   9.95916647E-001   3.59648124E-002   9.95916649E-001
   2.40000000E+002   9.96399613E-001   3.59648125E-002   9.96399614E-001
   2.45000000E+002   9.96840485E-001   3.59648126E-002   9.96840486E-001
