# ./jetvheto -in n3lo-fixed-order/H125-LHC13-R04-mb-475-mt-1725-xmur025-xmuf050-log.fxd -xQ 0.25 -out benchmarks-n3lo-smallR/H125-LHC13-R04-mb-475-mt-1725-xmur025-xmuf050-xQ025-N3LO+NNLLb.res -scheme b -order 2 -ptmax 500.01 -fixed_order 3 -loop-mass t+b
# process = H    
# collider = pp   
# rts =  13000.000
# M   =    125.000
# muR =     31.250
# muF =     62.500
# Q   =     31.250
# p   =      5.000
# include_c1_squared =   F
# loop_mass  = t+b 
# alphas(MZ) =    0.11800
# alphas(M) =    0.11264
# alphas(muR) =    0.14091
# Rjet =      0.400
# order = NNLL
# pdf name and set = PDF4LHC15_nnlo_mc.LHgrid,    0
# matching scheme = b
# total cross sections [nb] at LO, NLOdiff, NNLOdiff, N3LOdiff =     0.017683    0.024805    0.005009   -0.002663
#----------------------------------------------------------------------
# the lines that follow give the jet-veto efficiencies as a function of pt
#         pt            matched eff      resummed eff     fixed-order eff
   2.00000000E+001   4.62629416E-001   4.23588412E-001   4.77630795E-001
   2.50000000E+001   5.48662721E-001   4.82875354E-001   5.55490405E-001
   3.00000000E+001   6.23633638E-001   5.17876122E-001   6.27139586E-001
   3.50000000E+001   6.82194093E-001   5.36977522E-001   6.83914005E-001
   4.00000000E+001   7.25678398E-001   5.47029176E-001   7.26455264E-001
   4.50000000E+001   7.65190000E-001   5.52346647E-001   7.65589394E-001
   5.00000000E+001   7.95776184E-001   5.55244822E-001   7.95971836E-001
   5.50000000E+001   8.22897031E-001   5.56887469E-001   8.23001148E-001
   6.00000000E+001   8.44566354E-001   5.57856696E-001   8.44619420E-001
   6.50000000E+001   8.65589581E-001   5.58450596E-001   8.65621325E-001
   7.00000000E+001   8.80549951E-001   5.58827178E-001   8.80565053E-001
   7.50000000E+001   8.94297035E-001   5.59073369E-001   8.94304462E-001
   8.00000000E+001   9.06977748E-001   5.59238746E-001   9.06981466E-001
   8.50000000E+001   9.18312559E-001   5.59352552E-001   9.18314335E-001
   9.00000000E+001   9.28265961E-001   5.59432573E-001   9.28266666E-001
   9.50000000E+001   9.35710217E-001   5.59489935E-001   9.35709992E-001
   1.00000000E+002   9.43136955E-001   5.59531773E-001   9.43136433E-001
   1.05000000E+002   9.48651795E-001   5.59562770E-001   9.48650978E-001
   1.10000000E+002   9.53801438E-001   5.59586063E-001   9.53800536E-001
   1.15000000E+002   9.58920364E-001   5.59603796E-001   9.58919523E-001
   1.20000000E+002   9.63511360E-001   5.59617456E-001   9.63510598E-001
   1.25000000E+002   9.67061508E-001   5.59628093E-001   9.67060783E-001
   1.30000000E+002   9.70086806E-001   5.59636460E-001   9.70086131E-001
   1.35000000E+002   9.73358098E-001   5.59643101E-001   9.73357507E-001
   1.40000000E+002   9.76338071E-001   5.59648419E-001   9.76337556E-001
   1.45000000E+002   9.78818098E-001   5.59652711E-001   9.78817643E-001
   1.50000000E+002   9.80453768E-001   5.59656200E-001   9.80453348E-001
   1.55000000E+002   9.82811577E-001   5.59659056E-001   9.82811216E-001
   1.60000000E+002   9.84896835E-001   5.59661410E-001   9.84896523E-001
   1.65000000E+002   9.85704751E-001   5.59663361E-001   9.85704461E-001
   1.70000000E+002   9.87283951E-001   5.59664987E-001   9.87283697E-001
   1.75000000E+002   9.88791733E-001   5.59666351E-001   9.88791511E-001
   1.80000000E+002   9.89774781E-001   5.59667499E-001   9.89774582E-001
   1.85000000E+002   9.90674909E-001   5.59668471E-001   9.90674731E-001
   1.90000000E+002   9.91706250E-001   5.59669298E-001   9.91706092E-001
   1.95000000E+002   9.92670122E-001   5.59670003E-001   9.92669982E-001
   2.00000000E+002   9.93492736E-001   5.59670609E-001   9.93492612E-001
   2.05000000E+002   9.94045920E-001   5.59671129E-001   9.94045808E-001
   2.10000000E+002   9.94679871E-001   5.59671579E-001   9.94679771E-001
   2.15000000E+002   9.95064507E-001   5.59671969E-001   9.95064416E-001
   2.20000000E+002   9.95928468E-001   5.59672308E-001   9.95928387E-001
   2.25000000E+002   9.96170320E-001   5.59672604E-001   9.96170247E-001
   2.30000000E+002   9.96582449E-001   5.59672863E-001   9.96582383E-001
   2.35000000E+002   9.96828836E-001   5.59673090E-001   9.96828776E-001
   2.40000000E+002   9.97153151E-001   5.59673290E-001   9.97153096E-001
   2.45000000E+002   9.97627162E-001   5.59673467E-001   9.97627113E-001
