# ./jetvheto -in n3lo-fixed-order/H125-LHC13-R04-mb-0-mt-1725-xmur200-xmuf100-log.fxd -xQ 0.25 -out benchmarks-n3lo-smallR/H125-LHC13-R04-mb-0-mt-1725-xmur200-xmuf100-xQ025-NNLO+NNLLb.R0-0.5.res -scheme b -order 2 -ptmax 500.01 -small-r -fixed_order 2 -loop-mass t -R0 0.5
# process = H    
# collider = pp   
# rts =  13000.000
# M   =    125.000
# muR =    250.000
# muF =    125.000
# Q   =     31.250
# p   =      5.000
# include_c1_squared =   F
# loop_mass  = t   
# alphas(MZ) =    0.11800
# alphas(M) =    0.11264
# alphas(muR) =    0.10244
# Rjet =      0.400
# order = NNLL
# pdf name and set = PDF4LHC15_nnlo_mc.LHgrid,    0
# matching scheme = b
# total cross sections [nb] at LO, NLOdiff, NNLOdiff, N3LOdiff =     0.011501    0.015066    0.010526    0.005600
#----------------------------------------------------------------------
# the lines that follow give the jet-veto efficiencies as a function of pt
#         pt            matched eff      resummed eff     fixed-order eff
   2.00000000E+001   4.14833411E-001   5.74827571E-001   3.67201827E-001
   2.50000000E+001   4.96907140E-001   6.50855968E-001   4.73161072E-001
   3.00000000E+001   5.65230144E-001   6.95517046E-001   5.53722917E-001
   3.50000000E+001   6.22783832E-001   7.19801649E-001   6.17253656E-001
   4.00000000E+001   6.71278182E-001   7.32551653E-001   6.68576569E-001
   4.50000000E+001   7.11955905E-001   7.39287823E-001   7.10591480E-001
   5.00000000E+001   7.46388328E-001   7.42956465E-001   7.45672623E-001
   5.50000000E+001   7.75614368E-001   7.45034895E-001   7.75224424E-001
   6.00000000E+001   8.00686567E-001   7.46260938E-001   8.00466992E-001
   6.50000000E+001   8.22295948E-001   7.47012086E-001   8.22168588E-001
   7.00000000E+001   8.40914820E-001   7.47488330E-001   8.40838970E-001
   7.50000000E+001   8.57264477E-001   7.47799656E-001   8.57218355E-001
   8.00000000E+001   8.71598718E-001   7.48008777E-001   8.71570191E-001
   8.50000000E+001   8.84143240E-001   7.48152683E-001   8.84125319E-001
   9.00000000E+001   8.95241030E-001   7.48253866E-001   8.95229677E-001
   9.50000000E+001   9.05028589E-001   7.48326397E-001   9.05021342E-001
   1.00000000E+002   9.13775991E-001   7.48379298E-001   9.13771358E-001
   1.05000000E+002   9.21580451E-001   7.48418491E-001   9.21577501E-001
   1.10000000E+002   9.28484426E-001   7.48447943E-001   9.28482563E-001
   1.15000000E+002   9.34752244E-001   7.48470364E-001   9.34751096E-001
   1.20000000E+002   9.40354529E-001   7.48487636E-001   9.40353848E-001
   1.25000000E+002   9.45420544E-001   7.48501086E-001   9.45420170E-001
   1.30000000E+002   9.50012928E-001   7.48511664E-001   9.50012754E-001
   1.35000000E+002   9.54139351E-001   7.48520062E-001   9.54139308E-001
   1.40000000E+002   9.57892362E-001   7.48526786E-001   9.57892400E-001
   1.45000000E+002   9.61329229E-001   7.48532212E-001   9.61329318E-001
   1.50000000E+002   9.64412246E-001   7.48536624E-001   9.64412364E-001
   1.55000000E+002   9.67265272E-001   7.48540236E-001   9.67265406E-001
   1.60000000E+002   9.69867735E-001   7.48543211E-001   9.69867876E-001
   1.65000000E+002   9.72229587E-001   7.48545678E-001   9.72229728E-001
   1.70000000E+002   9.74397507E-001   7.48547735E-001   9.74397644E-001
   1.75000000E+002   9.76352310E-001   7.48549459E-001   9.76352441E-001
   1.80000000E+002   9.78164547E-001   7.48550911E-001   9.78164670E-001
   1.85000000E+002   9.79812978E-001   7.48552140E-001   9.79813093E-001
   1.90000000E+002   9.81339648E-001   7.48553185E-001   9.81339755E-001
   1.95000000E+002   9.82748254E-001   7.48554077E-001   9.82748354E-001
   2.00000000E+002   9.84028943E-001   7.48554842E-001   9.84029035E-001
   2.05000000E+002   9.85223997E-001   7.48555500E-001   9.85224081E-001
   2.10000000E+002   9.86306122E-001   7.48556069E-001   9.86306199E-001
   2.15000000E+002   9.87297640E-001   7.48556562E-001   9.87297711E-001
   2.20000000E+002   9.88224550E-001   7.48556991E-001   9.88224615E-001
   2.25000000E+002   9.89074299E-001   7.48557365E-001   9.89074358E-001
   2.30000000E+002   9.89861832E-001   7.48557693E-001   9.89861887E-001
   2.35000000E+002   9.90598281E-001   7.48557980E-001   9.90598331E-001
   2.40000000E+002   9.91263002E-001   7.48558233E-001   9.91263048E-001
   2.45000000E+002   9.91886570E-001   7.48558456E-001   9.91886612E-001
