# ./jetvheto -in n3lo-fixed-order/H125-LHC13-R04-heft-xmur100-xmuf050-log.fxd -xQ 0.50 -out benchmarks-n3lo-smallR/H125-LHC13-R04-heft-xmur100-xmuf050-xQ050-N3LO+NNLLb.R0-1.0.res -scheme b -order 2 -ptmax 500.01 -fixed_order 3 -small-r -R0 1.0
# process = H    
# collider = pp   
# rts =  13000.000
# M   =    125.000
# muR =    125.000
# muF =     62.500
# Q   =     62.500
# p   =      5.000
# include_c1_squared =   F
# loop_mass  = none
# alphas(MZ) =    0.11800
# alphas(M) =    0.11264
# alphas(muR) =    0.11264
# Rjet =      0.400
# order = NNLL
# pdf name and set = PDF4LHC15_nnlo_mc.LHgrid,    0
# matching scheme = b
# total cross sections [nb] at LO, NLOdiff, NNLOdiff, N3LOdiff =     0.012193    0.016617    0.010424    0.004163
#----------------------------------------------------------------------
# the lines that follow give the jet-veto efficiencies as a function of pt
#         pt            matched eff      resummed eff     fixed-order eff
   2.00000000E+001   4.33175612E-001   5.01200096E-001   4.07189534E-001
   2.50000000E+001   5.19007769E-001   5.84822320E-001   5.00183665E-001
   3.00000000E+001   5.90702129E-001   6.44817348E-001   5.76902351E-001
   3.50000000E+001   6.48325088E-001   6.87343973E-001   6.37676069E-001
   4.00000000E+001   6.94222834E-001   7.16982270E-001   6.85718377E-001
   4.50000000E+001   7.33638759E-001   7.37157870E-001   7.26925383E-001
   5.00000000E+001   7.65805424E-001   7.50517453E-001   7.60497392E-001
   5.50000000E+001   7.93585262E-001   7.59124458E-001   7.89441351E-001
   6.00000000E+001   8.16693451E-001   7.64548677E-001   8.13476606E-001
   6.50000000E+001   8.37627236E-001   7.67922534E-001   8.35152650E-001
   7.00000000E+001   8.54581630E-001   7.70017418E-001   8.52674749E-001
   7.50000000E+001   8.69605282E-001   7.71330094E-001   8.68137331E-001
   8.00000000E+001   8.83080048E-001   7.72167159E-001   8.81946706E-001
   8.50000000E+001   8.95046592E-001   7.72713079E-001   8.94167013E-001
   9.00000000E+001   9.05662693E-001   7.73078165E-001   9.04975469E-001
   9.50000000E+001   9.14491630E-001   7.73328545E-001   9.13950358E-001
   1.00000000E+002   9.22675760E-001   7.73504409E-001   9.22246309E-001
   1.05000000E+002   9.29505270E-001   7.73630676E-001   9.29161705E-001
   1.10000000E+002   9.35751235E-001   7.73723148E-001   9.35474281E-001
   1.15000000E+002   9.41514983E-001   7.73792083E-001   9.41290116E-001
   1.20000000E+002   9.46722183E-001   7.73844288E-001   9.46538280E-001
   1.25000000E+002   9.51173262E-001   7.73884385E-001   9.51021769E-001
   1.30000000E+002   9.55109136E-001   7.73915573E-001   9.54983531E-001
   1.35000000E+002   9.58904700E-001   7.73940107E-001   9.58799932E-001
   1.40000000E+002   9.62346197E-001   7.73959605E-001   9.62258294E-001
   1.45000000E+002   9.65352912E-001   7.73975245E-001   9.65278746E-001
   1.50000000E+002   9.67866964E-001   7.73987898E-001   9.67804036E-001
   1.55000000E+002   9.70481177E-001   7.73998214E-001   9.70427543E-001
   1.60000000E+002   9.72865278E-001   7.74006685E-001   9.72819348E-001
   1.65000000E+002   9.74590718E-001   7.74013687E-001   9.74551191E-001
   1.70000000E+002   9.76527227E-001   7.74019510E-001   9.76493080E-001
   1.75000000E+002   9.78330500E-001   7.74024381E-001   9.78300881E-001
   1.80000000E+002   9.79816652E-001   7.74028478E-001   9.79790861E-001
   1.85000000E+002   9.81181951E-001   7.74031941E-001   9.81159412E-001
   1.90000000E+002   9.82526822E-001   7.74034881E-001   9.82507058E-001
   1.95000000E+002   9.83762648E-001   7.74037389E-001   9.83745262E-001
   2.00000000E+002   9.84881931E-001   7.74039538E-001   9.84866587E-001
   2.05000000E+002   9.85846732E-001   7.74041385E-001   9.85833150E-001
   2.10000000E+002   9.86782043E-001   7.74042980E-001   9.86769987E-001
   2.15000000E+002   9.87572883E-001   7.74044362E-001   9.87562151E-001
   2.20000000E+002   9.88508621E-001   7.74045563E-001   9.88499045E-001
   2.25000000E+002   9.89142917E-001   7.74046611E-001   9.89134350E-001
   2.30000000E+002   9.89839205E-001   7.74047527E-001   9.89831522E-001
   2.35000000E+002   9.90410135E-001   7.74048332E-001   9.90403229E-001
   2.40000000E+002   9.90989292E-001   7.74049039E-001   9.90983072E-001
   2.45000000E+002   9.91601524E-001   7.74049663E-001   9.91595909E-001
