# ./jetvheto -in n3lo-fixed-order/H125-LHC13-R04-heft-xmur050-xmuf050-log.fxd -xQ 0.50 -out benchmarks-n3lo-smallR/H125-LHC13-R04-heft-xmur050-xmuf050-xQ050-NNLO+NNLLa.R0-1.0.res -scheme a -order 2 -ptmax 500.01 -fixed_order 2 -small-r -R0 1.0
# process = H    
# collider = pp   
# rts =  13000.000
# M   =    125.000
# muR =     62.500
# muF =     62.500
# Q   =     62.500
# p   =      5.000
# include_c1_squared =   F
# loop_mass  = none
# alphas(MZ) =    0.11800
# alphas(M) =    0.11264
# alphas(muR) =    0.12516
# Rjet =      0.400
# order = NNLL
# pdf name and set = PDF4LHC15_nnlo_mc.LHgrid,    0
# matching scheme = a
# total cross sections [nb] at LO, NLOdiff, NNLOdiff, N3LOdiff =     0.015055    0.019611    0.008998    0.001413
#----------------------------------------------------------------------
# the lines that follow give the jet-veto efficiencies as a function of pt
#         pt            matched eff      resummed eff     fixed-order eff
   2.00000000E+001   4.72108852E-001   4.99465891E-001   4.60803594E-001
   2.50000000E+001   5.58468865E-001   5.77005546E-001   5.46887027E-001
   3.00000000E+001   6.26367944E-001   6.31742965E-001   6.14137214E-001
   3.50000000E+001   6.80082937E-001   6.69917246E-001   6.67697748E-001
   4.00000000E+001   7.23257197E-001   6.96051120E-001   7.11386119E-001
   4.50000000E+001   7.58367878E-001   7.13471784E-001   7.47572136E-001
   5.00000000E+001   7.87319685E-001   7.24715594E-001   7.77943884E-001
   5.50000000E+001   8.11513200E-001   7.31733612E-001   8.03669340E-001
   6.00000000E+001   8.31945388E-001   7.35987448E-001   8.25569926E-001
   6.50000000E+001   8.49544509E-001   7.38511811E-001   8.44466421E-001
   7.00000000E+001   8.64898123E-001   7.39995473E-001   8.60904291E-001
   7.50000000E+001   8.78229400E-001   7.40869625E-001   8.75107581E-001
   8.00000000E+001   8.90020204E-001   7.41391405E-001   8.87583197E-001
   8.50000000E+001   9.00482041E-001   7.41709332E-001   8.98575401E-001
   9.00000000E+001   9.09792763E-001   7.41908179E-001   9.08294278E-001
   9.50000000E+001   9.18016699E-001   7.42036161E-001   9.16831850E-001
   1.00000000E+002   9.25379446E-001   7.42120955E-001   9.24436265E-001
   1.05000000E+002   9.31921160E-001   7.42178736E-001   9.31164894E-001
   1.10000000E+002   9.37819092E-001   7.42219157E-001   9.37208272E-001
   1.15000000E+002   9.43092338E-001   7.42248121E-001   9.42595447E-001
   1.20000000E+002   9.47858391E-001   7.42269331E-001   9.47451332E-001
   1.25000000E+002   9.52162398E-001   7.42285164E-001   9.51826691E-001
   1.30000000E+002   9.56018636E-001   7.42297188E-001   9.55739978E-001
   1.35000000E+002   9.59532871E-001   7.42306460E-001   9.59300155E-001
   1.40000000E+002   9.62720639E-001   7.42313707E-001   9.62525156E-001
   1.45000000E+002   9.65581448E-001   7.42319440E-001   9.65416341E-001
   1.50000000E+002   9.68213633E-001   7.42324024E-001   9.68073453E-001
   1.55000000E+002   9.70589168E-001   7.42327724E-001   9.70469565E-001
   1.60000000E+002   9.72775482E-001   7.42330738E-001   9.72672954E-001
   1.65000000E+002   9.74747893E-001   7.42333213E-001   9.74659615E-001
   1.70000000E+002   9.76574524E-001   7.42335259E-001   9.76498194E-001
   1.75000000E+002   9.78259261E-001   7.42336962E-001   9.78193000E-001
   1.80000000E+002   9.79781457E-001   7.42338388E-001   9.79723719E-001
   1.85000000E+002   9.81186752E-001   7.42339589E-001   9.81136260E-001
   1.90000000E+002   9.82483197E-001   7.42340606E-001   9.82438890E-001
   1.95000000E+002   9.83664598E-001   7.42341471E-001   9.83625593E-001
   2.00000000E+002   9.84755136E-001   7.42342210E-001   9.84720691E-001
   2.05000000E+002   9.85773860E-001   7.42342845E-001   9.85743353E-001
   2.10000000E+002   9.86699813E-001   7.42343392E-001   9.86672717E-001
   2.15000000E+002   9.87569172E-001   7.42343865E-001   9.87545040E-001
   2.20000000E+002   9.88374245E-001   7.42344276E-001   9.88352698E-001
   2.25000000E+002   9.89096127E-001   7.42344634E-001   9.89076840E-001
   2.30000000E+002   9.89808922E-001   7.42344947E-001   9.89791617E-001
   2.35000000E+002   9.90437399E-001   7.42345221E-001   9.90421838E-001
   2.40000000E+002   9.91033031E-001   7.42345462E-001   9.91019008E-001
   2.45000000E+002   9.91586771E-001   7.42345674E-001   9.91574107E-001
