# ./jetvheto -in n3lo-fixed-order/H125-LHC13-R04-heft-xmur050-xmuf100-log.fxd -xQ 0.50 -out benchmarks-n3lo-smallR/H125-LHC13-R04-heft-xmur050-xmuf100-xQ050-N3LO+NNLLa.res -scheme a -order 2 -ptmax 500.01 -fixed_order 3
# process = H    
# collider = pp   
# rts =  13000.000
# M   =    125.000
# muR =     62.500
# muF =    125.000
# Q   =     62.500
# p   =      5.000
# include_c1_squared =   F
# loop_mass  = none
# alphas(MZ) =    0.11800
# alphas(M) =    0.11264
# alphas(muR) =    0.12516
# Rjet =      0.400
# order = NNLL
# pdf name and set = PDF4LHC15_nnlo_mc.LHgrid,    0
# matching scheme = a
# total cross sections [nb] at LO, NLOdiff, NNLOdiff, N3LOdiff =     0.015984    0.019551    0.008553    0.000949
#----------------------------------------------------------------------
# the lines that follow give the jet-veto efficiencies as a function of pt
#         pt            matched eff      resummed eff     fixed-order eff
   2.00000000E+001   4.53188351E-001   5.06049931E-001   4.42155679E-001
   2.50000000E+001   5.38641118E-001   5.83490830E-001   5.28304897E-001
   3.00000000E+001   6.12671755E-001   6.37700530E-001   6.04104163E-001
   3.50000000E+001   6.69449333E-001   6.75161353E-001   6.61828868E-001
   4.00000000E+001   7.15108427E-001   7.00524563E-001   7.08439929E-001
   4.50000000E+001   7.51739851E-001   7.17213823E-001   7.46058415E-001
   5.00000000E+001   7.82883328E-001   7.27815852E-001   7.78194019E-001
   5.50000000E+001   8.09635350E-001   7.34297396E-001   8.05857894E-001
   6.00000000E+001   8.31947538E-001   7.38118957E-001   8.28950672E-001
   6.50000000E+001   8.52345302E-001   7.40307347E-001   8.49997138E-001
   7.00000000E+001   8.69344127E-001   7.41536481E-001   8.67515945E-001
   7.50000000E+001   8.83064011E-001   7.42220861E-001   8.81644326E-001
   8.00000000E+001   8.95169310E-001   7.42602311E-001   8.94065194E-001
   8.50000000E+001   9.06379425E-001   7.42816705E-001   9.05517462E-001
   9.00000000E+001   9.15756394E-001   7.42938901E-001   9.15079614E-001
   9.50000000E+001   9.24570449E-001   7.43009784E-001   9.24035419E-001
   1.00000000E+002   9.31653037E-001   7.43051724E-001   9.31227367E-001
   1.05000000E+002   9.38048092E-001   7.43077062E-001   9.37706875E-001
   1.10000000E+002   9.43898091E-001   7.43092702E-001   9.43622569E-001
   1.15000000E+002   9.49115644E-001   7.43102564E-001   9.48891525E-001
   1.20000000E+002   9.53592191E-001   7.43108915E-001   9.53408697E-001
   1.25000000E+002   9.57353772E-001   7.43113090E-001   9.57202542E-001
   1.30000000E+002   9.61381698E-001   7.43115890E-001   9.61256180E-001
   1.35000000E+002   9.64871130E-001   7.43117805E-001   9.64766330E-001
   1.40000000E+002   9.67662336E-001   7.43119138E-001   9.67574392E-001
   1.45000000E+002   9.70414015E-001   7.43120084E-001   9.70339764E-001
   1.50000000E+002   9.72665843E-001   7.43120767E-001   9.72602869E-001
   1.55000000E+002   9.75328250E-001   7.43121267E-001   9.75274533E-001
   1.60000000E+002   9.76803220E-001   7.43121640E-001   9.76757233E-001
   1.65000000E+002   9.78613857E-001   7.43121922E-001   9.78574295E-001
   1.70000000E+002   9.80155662E-001   7.43122138E-001   9.80121487E-001
   1.75000000E+002   9.81742273E-001   7.43122306E-001   9.81712631E-001
   1.80000000E+002   9.83192711E-001   7.43122438E-001   9.83166902E-001
   1.85000000E+002   9.84491538E-001   7.43122543E-001   9.84468988E-001
   1.90000000E+002   9.85213435E-001   7.43122627E-001   9.85193674E-001
   1.95000000E+002   9.86430223E-001   7.43122695E-001   9.86412837E-001
   2.00000000E+002   9.87432198E-001   7.43122751E-001   9.87416858E-001
   2.05000000E+002   9.88244278E-001   7.43122798E-001   9.88230704E-001
   2.10000000E+002   9.88977563E-001   7.43122836E-001   9.88965517E-001
   2.15000000E+002   9.89895614E-001   7.43122868E-001   9.89884895E-001
   2.20000000E+002   9.90461616E-001   7.43122896E-001   9.90452054E-001
   2.25000000E+002   9.91125317E-001   7.43122919E-001   9.91116765E-001
   2.30000000E+002   9.91751314E-001   7.43122939E-001   9.91743647E-001
   2.35000000E+002   9.92333481E-001   7.43122956E-001   9.92326591E-001
   2.40000000E+002   9.92661130E-001   7.43122971E-001   9.92654926E-001
   2.45000000E+002   9.93218898E-001   7.43122983E-001   9.93213299E-001
