# ./jetvheto -in n3lo-fixed-order/H125-LHC13-R04-mb-475-mt-1725-xmur200-xmuf200-log.fxd -xQ 0.5 -out benchmarks-n3lo-smallR/H125-LHC13-R04-mb-475-mt-1725-xmur200-xmuf200-xQ050-N3LO+NNLLb.res -scheme b -order 2 -ptmax 500.01 -fixed_order 3 -loop-mass t+b
# process = H    
# collider = pp   
# rts =  13000.000
# M   =    125.000
# muR =    250.000
# muF =    250.000
# Q   =     62.500
# p   =      5.000
# include_c1_squared =   F
# loop_mass  = t+b 
# alphas(MZ) =    0.11800
# alphas(M) =    0.11264
# alphas(muR) =    0.10244
# Rjet =      0.400
# order = NNLL
# pdf name and set = PDF4LHC15_nnlo_mc.LHgrid,    0
# matching scheme = b
# total cross sections [nb] at LO, NLOdiff, NNLOdiff, N3LOdiff =     0.010658    0.014649    0.010464    0.005358
#----------------------------------------------------------------------
# the lines that follow give the jet-veto efficiencies as a function of pt
#         pt            matched eff      resummed eff     fixed-order eff
   2.00000000E+001   4.23179841E-001   5.28529355E-001   3.93395559E-001
   2.50000000E+001   5.11263569E-001   6.11309083E-001   4.92532833E-001
   3.00000000E+001   5.81235226E-001   6.69929565E-001   5.68240268E-001
   3.50000000E+001   6.39451715E-001   7.10928996E-001   6.29965429E-001
   4.00000000E+001   6.87469577E-001   7.39069705E-001   6.80230765E-001
   4.50000000E+001   7.26505316E-001   7.57887138E-001   7.20815417E-001
   5.00000000E+001   7.60930029E-001   7.70080363E-001   7.56465253E-001
   5.50000000E+001   7.88992728E-001   7.77726990E-001   7.85472917E-001
   6.00000000E+001   8.13005256E-001   7.82386883E-001   8.10248405E-001
   6.50000000E+001   8.33487405E-001   7.85170741E-001   8.31339503E-001
   7.00000000E+001   8.52121586E-001   7.86820344E-001   8.50454712E-001
   7.50000000E+001   8.67590330E-001   7.87801675E-001   8.66297011E-001
   8.00000000E+001   8.81111251E-001   7.88393866E-001   8.80105627E-001
   8.50000000E+001   8.93187181E-001   7.88759139E-001   8.92402216E-001
   9.00000000E+001   9.03536811E-001   7.88990497E-001   9.02920500E-001
   9.50000000E+001   9.13236516E-001   7.89141248E-001   9.12749431E-001
   1.00000000E+002   9.21443493E-001   7.89242313E-001   9.21055914E-001
   1.05000000E+002   9.28690347E-001   7.89311959E-001   9.28379619E-001
   1.10000000E+002   9.34982013E-001   7.89361180E-001   9.34731087E-001
   1.15000000E+002   9.40954601E-001   7.89396774E-001   9.40750487E-001
   1.20000000E+002   9.46371046E-001   7.89423047E-001   9.46203839E-001
   1.25000000E+002   9.50885891E-001   7.89442796E-001   9.50748033E-001
   1.30000000E+002   9.55185807E-001   7.89457884E-001   9.55071404E-001
   1.35000000E+002   9.58879814E-001   7.89469576E-001   9.58784295E-001
   1.40000000E+002   9.62574323E-001   7.89478754E-001   9.62494103E-001
   1.45000000E+002   9.65526145E-001   7.89486040E-001   9.65458416E-001
   1.50000000E+002   9.68423327E-001   7.89491884E-001   9.68365842E-001
   1.55000000E+002   9.71005374E-001   7.89496614E-001   9.70956346E-001
   1.60000000E+002   9.73270622E-001   7.89500475E-001   9.73228609E-001
   1.65000000E+002   9.75244743E-001   7.89503650E-001   9.75208585E-001
   1.70000000E+002   9.77328361E-001   7.89506280E-001   9.77297108E-001
   1.75000000E+002   9.79030866E-001   7.89508472E-001   9.79003749E-001
   1.80000000E+002   9.80870204E-001   7.89510309E-001   9.80846583E-001
   1.85000000E+002   9.82203064E-001   7.89511858E-001   9.82182417E-001
   1.90000000E+002   9.83551615E-001   7.89513171E-001   9.83533505E-001
   1.95000000E+002   9.84755300E-001   7.89514288E-001   9.84739364E-001
   2.00000000E+002   9.86063984E-001   7.89515244E-001   9.86049915E-001
   2.05000000E+002   9.86981884E-001   7.89516065E-001   9.86969430E-001
   2.10000000E+002   9.87856071E-001   7.89516772E-001   9.87845014E-001
   2.15000000E+002   9.88790751E-001   7.89517385E-001   9.88780907E-001
   2.20000000E+002   9.89655933E-001   7.89517917E-001   9.89647147E-001
   2.25000000E+002   9.90334722E-001   7.89518380E-001   9.90326861E-001
   2.30000000E+002   9.90986961E-001   7.89518785E-001   9.90979911E-001
   2.35000000E+002   9.91660398E-001   7.89519140E-001   9.91654060E-001
   2.40000000E+002   9.92246136E-001   7.89519453E-001   9.92240426E-001
   2.45000000E+002   9.92812792E-001   7.89519728E-001   9.92807637E-001
