# ./jetvheto -in n3lo-fixed-order/H125-LHC13-R04-mb-475-mt-1725-xmur050-xmuf050-log.fxd -xQ 0.333 -out benchmarks-n3lo-smallR/H125-LHC13-R04-mb-475-mt-1725-xmur050-xmuf050-xQ033-N3LO+NNLLa.res -scheme a -order 2 -ptmax 500.01 -fixed_order 3 -loop-mass t+b
# process = H    
# collider = pp   
# rts =  13000.000
# M   =    125.000
# muR =     62.500
# muF =     62.500
# Q   =     41.625
# p   =      5.000
# include_c1_squared =   F
# loop_mass  = t+b 
# alphas(MZ) =    0.11800
# alphas(M) =    0.11264
# alphas(muR) =    0.12516
# Rjet =      0.400
# order = NNLL
# pdf name and set = PDF4LHC15_nnlo_mc.LHgrid,    0
# matching scheme = a
# total cross sections [nb] at LO, NLOdiff, NNLOdiff, N3LOdiff =     0.014147    0.020254    0.008998    0.001413
#----------------------------------------------------------------------
# the lines that follow give the jet-veto efficiencies as a function of pt
#         pt            matched eff      resummed eff     fixed-order eff
   2.00000000E+001   4.38845334E-001   4.64531473E-001   4.41074844E-001
   2.50000000E+001   5.25750345E-001   5.37841090E-001   5.26291803E-001
   3.00000000E+001   5.99364621E-001   5.87550518E-001   5.99588615E-001
   3.50000000E+001   6.58205607E-001   6.19819834E-001   6.58104134E-001
   4.00000000E+001   7.04027358E-001   6.39890521E-001   7.03699261E-001
   4.50000000E+001   7.44203617E-001   6.52003341E-001   7.43908515E-001
   5.00000000E+001   7.76528694E-001   6.59235377E-001   7.76267730E-001
   5.50000000E+001   8.04638543E-001   6.63583699E-001   8.04438345E-001
   6.00000000E+001   8.27823639E-001   6.66246917E-001   8.27667847E-001
   6.50000000E+001   8.49185681E-001   6.67917925E-001   8.49073502E-001
   7.00000000E+001   8.65855252E-001   6.68993747E-001   8.65767048E-001
   7.50000000E+001   8.80741737E-001   6.69704133E-001   8.80674091E-001
   8.00000000E+001   8.94189602E-001   6.70184538E-001   8.94138038E-001
   8.50000000E+001   9.06146401E-001   6.70516656E-001   9.06106835E-001
   9.00000000E+001   9.16641674E-001   6.70750932E-001   9.16611008E-001
   9.50000000E+001   9.25103030E-001   6.70919252E-001   9.25078477E-001
   1.00000000E+002   9.33121312E-001   6.71042223E-001   9.33101787E-001
   1.05000000E+002   9.39601529E-001   6.71133441E-001   9.39585604E-001
   1.10000000E+002   9.45508198E-001   6.71202052E-001   9.45495190E-001
   1.15000000E+002   9.51104713E-001   6.71254319E-001   9.51094105E-001
   1.20000000E+002   9.56116386E-001   6.71294603E-001   9.56107678E-001
   1.25000000E+002   9.60303542E-001   6.71325986E-001   9.60296277E-001
   1.30000000E+002   9.63944122E-001   6.71350678E-001   9.63938023E-001
   1.35000000E+002   9.67551998E-001   6.71370284E-001   9.67546891E-001
   1.40000000E+002   9.70834549E-001   6.71385985E-001   9.70830250E-001
   1.45000000E+002   9.73668292E-001   6.71398659E-001   9.73664645E-001
   1.50000000E+002   9.75890958E-001   6.71408964E-001   9.75887820E-001
   1.55000000E+002   9.78414204E-001   6.71417401E-001   9.78411529E-001
   1.60000000E+002   9.80670387E-001   6.71424353E-001   9.80668095E-001
   1.65000000E+002   9.82076147E-001   6.71430117E-001   9.82074144E-001
   1.70000000E+002   9.83851775E-001   6.71434922E-001   9.83850040E-001
   1.75000000E+002   9.85522142E-001   6.71438950E-001   9.85520635E-001
   1.80000000E+002   9.86798666E-001   6.71442343E-001   9.86797346E-001
   1.85000000E+002   9.87976552E-001   6.71445215E-001   9.87975392E-001
   1.90000000E+002   9.89173357E-001   6.71447658E-001   9.89172337E-001
   1.95000000E+002   9.90275710E-001   6.71449743E-001   9.90274812E-001
   2.00000000E+002   9.91247157E-001   6.71451531E-001   9.91246363E-001
   2.05000000E+002   9.92023124E-001   6.71453070E-001   9.92022417E-001
   2.10000000E+002   9.92796037E-001   6.71454399E-001   9.92795408E-001
   2.15000000E+002   9.93403483E-001   6.71455551E-001   9.93402921E-001
   2.20000000E+002   9.94259811E-001   6.71456554E-001   9.94259310E-001
   2.25000000E+002   9.94706829E-001   6.71457428E-001   9.94706379E-001
   2.30000000E+002   9.95249748E-001   6.71458193E-001   9.95249343E-001
   2.35000000E+002   9.95654366E-001   6.71458865E-001   9.95654001E-001
   2.40000000E+002   9.96088311E-001   6.71459456E-001   9.96087982E-001
   2.45000000E+002   9.96585999E-001   6.71459978E-001   9.96585702E-001
