# ./jetvheto -in n3lo-fixed-order/H125-LHC13-R04-mb-0-mt-1725-xmur100-xmuf100-log.fxd -xQ 0.75 -out benchmarks-n3lo-smallR/H125-LHC13-R04-mb-0-mt-1725-xmur100-xmuf100-xQ075-N3LO+NNLLa.res -scheme a -order 2 -ptmax 500.01 -fixed_order 3 -loop-mass t
# process = H    
# collider = pp   
# rts =  13000.000
# M   =    125.000
# muR =    125.000
# muF =    125.000
# Q   =     93.750
# p   =      5.000
# include_c1_squared =   F
# loop_mass  = t   
# alphas(MZ) =    0.11800
# alphas(M) =    0.11264
# alphas(muR) =    0.11264
# Rjet =      0.400
# order = NNLL
# pdf name and set = PDF4LHC15_nnlo_mc.LHgrid,    0
# matching scheme = a
# total cross sections [nb] at LO, NLOdiff, NNLOdiff, N3LOdiff =     0.013801    0.017514    0.010146    0.003834
#----------------------------------------------------------------------
# the lines that follow give the jet-veto efficiencies as a function of pt
#         pt            matched eff      resummed eff     fixed-order eff
   2.00000000E+001   4.73597396E-001   5.45104179E-001   4.70549319E-001
   2.50000000E+001   5.61713118E-001   6.32352102E-001   5.55098689E-001
   3.00000000E+001   6.34791588E-001   6.94393823E-001   6.25631507E-001
   3.50000000E+001   6.91598332E-001   7.38169022E-001   6.80214785E-001
   4.00000000E+001   7.37113157E-001   7.68635614E-001   7.24327023E-001
   4.50000000E+001   7.73535837E-001   7.89332045E-001   7.60109480E-001
   5.00000000E+001   8.03867497E-001   8.02802870E-001   7.90410150E-001
   5.50000000E+001   8.29301483E-001   8.10935411E-001   8.16264683E-001
   6.00000000E+001   8.50313783E-001   8.15162646E-001   8.38035676E-001
   6.50000000E+001   8.68757071E-001   8.16597987E-001   8.57426760E-001
   7.00000000E+001   8.83982258E-001   8.16115606E-001   8.73744963E-001
   7.50000000E+001   8.96412510E-001   8.14399133E-001   8.87342330E-001
   8.00000000E+001   9.07204589E-001   8.11975495E-001   8.99280183E-001
   8.50000000E+001   9.16896485E-001   8.09235767E-001   9.10046058E-001
   9.00000000E+001   9.25074725E-001   8.06454664E-001   9.19217312E-001
   9.50000000E+001   9.32582456E-001   8.03809080E-001   9.27603719E-001
   1.00000000E+002   9.38825643E-001   8.01399464E-001   9.34624471E-001
   1.05000000E+002   9.44452396E-001   7.99270535E-001   9.40917661E-001
   1.10000000E+002   9.49539649E-001   7.97429717E-001   9.46569141E-001
   1.15000000E+002   9.54143791E-001   7.95861981E-001   9.51647991E-001
   1.20000000E+002   9.58157431E-001   7.94540491E-001   9.56059806E-001
   1.25000000E+002   9.61648344E-001   7.93433980E-001   9.59883314E-001
   1.30000000E+002   9.65203140E-001   7.92511094E-001   9.63711695E-001
   1.35000000E+002   9.68318008E-001   7.91742766E-001   9.67054718E-001
   1.40000000E+002   9.70949625E-001   7.91103277E-001   9.69877285E-001
   1.45000000E+002   9.73485084E-001   7.90570543E-001   9.72571106E-001
   1.50000000E+002   9.75633931E-001   7.90125965E-001   9.74852733E-001
   1.55000000E+002   9.77981666E-001   7.89754080E-001   9.77310440E-001
   1.60000000E+002   9.79561593E-001   7.89442132E-001   9.78984317E-001
   1.65000000E+002   9.81274531E-001   7.89179656E-001   9.80775628E-001
   1.70000000E+002   9.82774850E-001   7.88958085E-001   9.82342311E-001
   1.75000000E+002   9.84239209E-001   7.88770412E-001   9.83862750E-001
   1.80000000E+002   9.85587008E-001   7.88610909E-001   9.85258287E-001
   1.85000000E+002   9.86799641E-001   7.88474883E-001   9.86511714E-001
   1.90000000E+002   9.87643988E-001   7.88358484E-001   9.87391325E-001
   1.95000000E+002   9.88740886E-001   7.88258546E-001   9.88518162E-001
   2.00000000E+002   9.89671185E-001   7.88172462E-001   9.89474357E-001
   2.05000000E+002   9.90471516E-001   7.88098071E-001   9.90297139E-001
   2.10000000E+002   9.91188122E-001   7.88033587E-001   9.91033226E-001
   2.15000000E+002   9.91987401E-001   7.87977520E-001   9.91849366E-001
   2.20000000E+002   9.92563990E-001   7.87928629E-001   9.92440768E-001
   2.25000000E+002   9.93173979E-001   7.87885874E-001   9.93063675E-001
   2.30000000E+002   9.93743251E-001   7.87848382E-001   9.93644282E-001
   2.35000000E+002   9.94270504E-001   7.87815418E-001   9.94181508E-001
   2.40000000E+002   9.94626216E-001   7.87786361E-001   9.94546063E-001
   2.45000000E+002   9.95106913E-001   7.87760684E-001   9.95034525E-001
