# ./jetvheto -in n3lo-fixed-order/H125-LHC13-R04-heft-xmur025-xmuf050-log.fxd -xQ 0.50 -out benchmarks-n3lo-smallR/H125-LHC13-R04-heft-xmur025-xmuf050-xQ050-N3LO+NNLLa.R0-1.5.res -scheme a -order 2 -ptmax 500.01 -fixed_order 3 -small-r -R0 1.5
# process = H    
# collider = pp   
# rts =  13000.000
# M   =    125.000
# muR =     31.250
# muF =     62.500
# Q   =     62.500
# p   =      5.000
# include_c1_squared =   F
# loop_mass  = none
# alphas(MZ) =    0.11800
# alphas(M) =    0.11264
# alphas(muR) =    0.14091
# Rjet =      0.400
# order = NNLL
# pdf name and set = PDF4LHC15_nnlo_mc.LHgrid,    0
# matching scheme = a
# total cross sections [nb] at LO, NLOdiff, NNLOdiff, N3LOdiff =     0.019087    0.023444    0.005009   -0.002663
#----------------------------------------------------------------------
# the lines that follow give the jet-veto efficiencies as a function of pt
#         pt            matched eff      resummed eff     fixed-order eff
   2.00000000E+001   4.82543354E-001   5.13332718E-001   4.52908045E-001
   2.50000000E+001   5.60995535E-001   5.77628868E-001   5.35655902E-001
   3.00000000E+001   6.31044525E-001   6.21823160E-001   6.11379724E-001
   3.50000000E+001   6.86131026E-001   6.51779657E-001   6.70886616E-001
   4.00000000E+001   7.27192166E-001   6.71600270E-001   7.15361550E-001
   4.50000000E+001   7.64929170E-001   6.84242081E-001   7.56004031E-001
   5.00000000E+001   7.94118651E-001   6.91927356E-001   7.87409309E-001
   5.50000000E+001   8.20362771E-001   6.96339315E-001   8.15368434E-001
   6.00000000E+001   8.41261378E-001   6.98712226E-001   8.37547299E-001
   6.50000000E+001   8.61961014E-001   6.99893133E-001   8.59191803E-001
   7.00000000E+001   8.76521620E-001   7.00422154E-001   8.74446395E-001
   7.50000000E+001   8.90046444E-001   7.00617889E-001   8.88481827E-001
   8.00000000E+001   9.02608933E-001   7.00655408E-001   9.01417424E-001
   8.50000000E+001   9.13868299E-001   7.00625035E-001   9.12952228E-001
   9.00000000E+001   9.23868612E-001   7.00570944E-001   9.23157419E-001
   9.50000000E+001   9.31277802E-001   7.00513253E-001   9.30721976E-001
   1.00000000E+002   9.38707206E-001   7.00460216E-001   9.38268001E-001
   1.05000000E+002   9.44148792E-001   7.00414522E-001   9.43799479E-001
   1.10000000E+002   9.49318161E-001   7.00376403E-001   9.49037751E-001
   1.15000000E+002   9.54436545E-001   7.00345118E-001   9.54209498E-001
   1.20000000E+002   9.59069592E-001   7.00319642E-001   9.58884353E-001
   1.25000000E+002   9.62590260E-001   7.00298952E-001   9.62438159E-001
   1.30000000E+002   9.65608235E-001   7.00282146E-001   9.65482592E-001
   1.35000000E+002   9.68924865E-001   7.00268465E-001   9.68820287E-001
   1.40000000E+002   9.71932390E-001   7.00257292E-001   9.71844834E-001
   1.45000000E+002   9.74413416E-001   7.00248132E-001   9.74339734E-001
   1.50000000E+002   9.76023301E-001   7.00240590E-001   9.75961006E-001
   1.55000000E+002   9.78401603E-001   7.00234351E-001   9.78348602E-001
   1.60000000E+002   9.80532235E-001   7.00229168E-001   9.80486934E-001
   1.65000000E+002   9.81314399E-001   7.00224841E-001   9.81275574E-001
   1.70000000E+002   9.82946972E-001   7.00221213E-001   9.82913502E-001
   1.75000000E+002   9.84499590E-001   7.00218157E-001   9.84470614E-001
   1.80000000E+002   9.85516904E-001   7.00215573E-001   9.85491744E-001
   1.85000000E+002   9.86438534E-001   7.00213378E-001   9.86416605E-001
   1.90000000E+002   9.87517589E-001   7.00211506E-001   9.87498400E-001
   1.95000000E+002   9.88527360E-001   7.00209904E-001   9.88510515E-001
   2.00000000E+002   9.89401465E-001   7.00208528E-001   9.89386632E-001
   2.05000000E+002   9.90001905E-001   7.00207341E-001   9.89988806E-001
   2.10000000E+002   9.90702368E-001   7.00206315E-001   9.90690767E-001
   2.15000000E+002   9.91127139E-001   7.00205424E-001   9.91116838E-001
   2.20000000E+002   9.92064911E-001   7.00204648E-001   9.92055731E-001
   2.25000000E+002   9.92355166E-001   7.00203970E-001   9.92346974E-001
   2.30000000E+002   9.92831957E-001   7.00203377E-001   9.92824623E-001
   2.35000000E+002   9.93134966E-001   7.00202855E-001   9.93128389E-001
   2.40000000E+002   9.93524118E-001   7.00202396E-001   9.93518204E-001
   2.45000000E+002   9.94083489E-001   7.00201991E-001   9.94078158E-001
