# ./jetvheto -in n3lo-fixed-order/H125-LHC13-R04-mb-0-mt-1725-xmur200-xmuf100-log.fxd -xQ 0.25 -out benchmarks-n3lo-smallR/H125-LHC13-R04-mb-0-mt-1725-xmur200-xmuf100-xQ025-NNLO+NNLLa.R0-0.5.res -scheme a -order 2 -ptmax 500.01 -small-r -fixed_order 2 -loop-mass t -R0 0.5
# process = H    
# collider = pp   
# rts =  13000.000
# M   =    125.000
# muR =    250.000
# muF =    125.000
# Q   =     31.250
# p   =      5.000
# include_c1_squared =   F
# loop_mass  = t   
# alphas(MZ) =    0.11800
# alphas(M) =    0.11264
# alphas(muR) =    0.10244
# Rjet =      0.400
# order = NNLL
# pdf name and set = PDF4LHC15_nnlo_mc.LHgrid,    0
# matching scheme = a
# total cross sections [nb] at LO, NLOdiff, NNLOdiff, N3LOdiff =     0.011501    0.015066    0.010526    0.005600
#----------------------------------------------------------------------
# the lines that follow give the jet-veto efficiencies as a function of pt
#         pt            matched eff      resummed eff     fixed-order eff
   2.00000000E+001   5.19202385E-001   5.74827571E-001   5.46775556E-001
   2.50000000E+001   6.05313682E-001   6.50855968E-001   6.22665977E-001
   3.00000000E+001   6.70082011E-001   6.95517046E-001   6.80366203E-001
   3.50000000E+001   7.19828556E-001   7.19801649E-001   7.25868363E-001
   4.00000000E+001   7.59009069E-001   7.32551653E-001   7.62627000E-001
   4.50000000E+001   7.90484466E-001   7.39287823E-001   7.92719035E-001
   5.00000000E+001   8.16418015E-001   7.42956465E-001   8.17844948E-001
   5.50000000E+001   8.38070268E-001   7.45034895E-001   8.39010620E-001
   6.00000000E+001   8.56451900E-001   7.46260938E-001   8.57089921E-001
   6.50000000E+001   8.72188898E-001   7.47012086E-001   8.72633098E-001
   7.00000000E+001   8.85688875E-001   7.47488330E-001   8.86005250E-001
   7.50000000E+001   8.97506529E-001   7.47799656E-001   8.97736538E-001
   8.00000000E+001   9.07845345E-001   7.48008777E-001   9.08015650E-001
   8.50000000E+001   9.16879770E-001   7.48152683E-001   9.17007918E-001
   9.00000000E+001   9.24863240E-001   7.48253866E-001   9.24961112E-001
   9.50000000E+001   9.31898387E-001   7.48326397E-001   9.31974125E-001
   1.00000000E+002   9.38181762E-001   7.48379298E-001   9.38241085E-001
   1.05000000E+002   9.43785043E-001   7.48418491E-001   9.43832023E-001
   1.10000000E+002   9.48740008E-001   7.48447943E-001   9.48777585E-001
   1.15000000E+002   9.53236912E-001   7.48470364E-001   9.53267251E-001
   1.20000000E+002   9.57255367E-001   7.48487636E-001   9.57280069E-001
   1.25000000E+002   9.60888411E-001   7.48501086E-001   9.60908684E-001
   1.30000000E+002   9.64181237E-001   7.48511664E-001   9.64197997E-001
   1.35000000E+002   9.67139579E-001   7.48520062E-001   9.67153529E-001
   1.40000000E+002   9.69829895E-001   7.48526786E-001   9.69841579E-001
   1.45000000E+002   9.72293332E-001   7.48532212E-001   9.72303178E-001
   1.50000000E+002   9.74502984E-001   7.48536624E-001   9.74511326E-001
   1.55000000E+002   9.76547635E-001   7.48540236E-001   9.76554739E-001
   1.60000000E+002   9.78412607E-001   7.48543211E-001   9.78418687E-001
   1.65000000E+002   9.80105072E-001   7.48545678E-001   9.80110300E-001
   1.70000000E+002   9.81658496E-001   7.48547735E-001   9.81663010E-001
   1.75000000E+002   9.83059166E-001   7.48549459E-001   9.83063080E-001
   1.80000000E+002   9.84357633E-001   7.48550911E-001   9.84361040E-001
   1.85000000E+002   9.85538702E-001   7.48552140E-001   9.85541678E-001
   1.90000000E+002   9.86632499E-001   7.48553185E-001   9.86635108E-001
   1.95000000E+002   9.87641683E-001   7.48554077E-001   9.87643979E-001
   2.00000000E+002   9.88559206E-001   7.48554842E-001   9.88561232E-001
   2.05000000E+002   9.89415358E-001   7.48555500E-001   9.89417151E-001
   2.10000000E+002   9.90190597E-001   7.48556069E-001   9.90192188E-001
   2.15000000E+002   9.90900916E-001   7.48556562E-001   9.90902332E-001
   2.20000000E+002   9.91564938E-001   7.48556991E-001   9.91566202E-001
   2.25000000E+002   9.92173677E-001   7.48557365E-001   9.92174807E-001
   2.30000000E+002   9.92737839E-001   7.48557693E-001   9.92738853E-001
   2.35000000E+002   9.93265400E-001   7.48557980E-001   9.93266311E-001
   2.40000000E+002   9.93741576E-001   7.48558233E-001   9.93742396E-001
   2.45000000E+002   9.94188267E-001   7.48558456E-001   9.94189007E-001
