# ./jetvheto -in n3lo-fixed-order/H125-LHC13-R04-heft-xmur200-xmuf100-log.fxd -xQ 0.50 -out benchmarks-n3lo-smallR/H125-LHC13-R04-heft-xmur200-xmuf100-xQ050-N3LO+NNLLa.R0-2.0.res -scheme a -order 2 -ptmax 500.01 -fixed_order 3 -small-r -R0 2.0
# process = H    
# collider = pp   
# rts =  13000.000
# M   =    125.000
# muR =    250.000
# muF =    125.000
# Q   =     62.500
# p   =      5.000
# include_c1_squared =   F
# loop_mass  = none
# alphas(MZ) =    0.11800
# alphas(M) =    0.11264
# alphas(muR) =    0.10244
# Rjet =      0.400
# order = NNLL
# pdf name and set = PDF4LHC15_nnlo_mc.LHgrid,    0
# matching scheme = a
# total cross sections [nb] at LO, NLOdiff, NNLOdiff, N3LOdiff =     0.010706    0.014429    0.010526    0.005600
#----------------------------------------------------------------------
# the lines that follow give the jet-veto efficiencies as a function of pt
#         pt            matched eff      resummed eff     fixed-order eff
   2.00000000E+001   4.70758528E-001   5.31317495E-001   4.83864536E-001
   2.50000000E+001   5.57317460E-001   6.15087512E-001   5.66336365E-001
   3.00000000E+001   6.28082435E-001   6.74858480E-001   6.33533594E-001
   3.50000000E+001   6.83435432E-001   7.17010111E-001   6.85744620E-001
   4.00000000E+001   7.27884525E-001   7.46212072E-001   7.28019410E-001
   4.50000000E+001   7.63645944E-001   7.65958553E-001   7.62485566E-001
   5.00000000E+001   7.93337141E-001   7.78931660E-001   7.91575294E-001
   5.50000000E+001   8.18240537E-001   7.87206250E-001   8.16332377E-001
   6.00000000E+001   8.39082593E-001   7.92354458E-001   8.37282852E-001
   6.50000000E+001   8.57365708E-001   7.95508500E-001   8.55795786E-001
   7.00000000E+001   8.72810150E-001   7.97433617E-001   8.71499263E-001
   7.50000000E+001   8.85810695E-001   7.98617827E-001   8.84743336E-001
   8.00000000E+001   8.97215695E-001   7.99358839E-001   8.96358926E-001
   8.50000000E+001   9.07438224E-001   7.99833328E-001   9.06755095E-001
   9.00000000E+001   9.16297454E-001   8.00145203E-001   9.15753146E-001
   9.50000000E+001   9.24323699E-001   8.00355756E-001   9.23889231E-001
   1.00000000E+002   9.31163902E-001   8.00501618E-001   9.30815615E-001
   1.05000000E+002   9.37302638E-001   8.00605112E-001   9.37021976E-001
   1.10000000E+002   9.42830382E-001   8.00680152E-001   9.42602908E-001
   1.15000000E+002   9.47799503E-001   8.00735627E-001   9.47613977E-001
   1.20000000E+002   9.52171962E-001   8.00777350E-001   9.52019706E-001
   1.25000000E+002   9.56006765E-001   8.00809215E-001   9.55881030E-001
   1.30000000E+002   9.59719752E-001   8.00833883E-001   9.59615306E-001
   1.35000000E+002   9.63031749E-001   8.00853215E-001   9.62944475E-001
   1.40000000E+002   9.65861560E-001   8.00868529E-001   9.65788234E-001
   1.45000000E+002   9.68550390E-001   8.00880782E-001   9.68488446E-001
   1.50000000E+002   9.70866897E-001   8.00890673E-001   9.70814307E-001
   1.55000000E+002   9.73232574E-001   8.00898722E-001   9.73187714E-001
   1.60000000E+002   9.75019922E-001   8.00905322E-001   9.74981471E-001
   1.65000000E+002   9.76830058E-001   8.00910771E-001   9.76796960E-001
   1.70000000E+002   9.78453795E-001   8.00915297E-001   9.78425185E-001
   1.75000000E+002   9.79998942E-001   8.00919081E-001   9.79974116E-001
   1.80000000E+002   9.81426399E-001   8.00922260E-001   9.81404775E-001
   1.85000000E+002   9.82716516E-001   8.00924946E-001   9.82697613E-001
   1.90000000E+002   9.83717522E-001   8.00927225E-001   9.83700941E-001
   1.95000000E+002   9.84873907E-001   8.00929168E-001   9.84859315E-001
   2.00000000E+002   9.85887117E-001   8.00930832E-001   9.85874236E-001
   2.05000000E+002   9.86781098E-001   8.00932263E-001   9.86769694E-001
   2.10000000E+002   9.87596595E-001   8.00933497E-001   9.87586470E-001
   2.15000000E+002   9.88441612E-001   8.00934567E-001   9.88432599E-001
   2.20000000E+002   9.89117780E-001   8.00935496E-001   9.89109735E-001
   2.25000000E+002   9.89798781E-001   8.00936306E-001   9.89791583E-001
   2.30000000E+002   9.90437198E-001   8.00937015E-001   9.90430742E-001
   2.35000000E+002   9.91039508E-001   8.00937637E-001   9.91033704E-001
   2.40000000E+002   9.91504786E-001   8.00938183E-001   9.91499557E-001
   2.45000000E+002   9.92043968E-001   8.00938666E-001   9.92039248E-001
