# ./jetvheto -in n3lo-fixed-order/H125-LHC13-R04-mb-0-mt-1725-xmur100-xmuf100-log.fxd -xQ 0.25 -out benchmarks-n3lo-smallR/H125-LHC13-R04-mb-0-mt-1725-xmur100-xmuf100-xQ025-N3LO+NNLLa.res -scheme a -order 2 -ptmax 500.01 -fixed_order 3 -loop-mass t
# process = H    
# collider = pp   
# rts =  13000.000
# M   =    125.000
# muR =    125.000
# muF =    125.000
# Q   =     31.250
# p   =      5.000
# include_c1_squared =   F
# loop_mass  = t   
# alphas(MZ) =    0.11800
# alphas(M) =    0.11264
# alphas(muR) =    0.11264
# Rjet =      0.400
# order = NNLL
# pdf name and set = PDF4LHC15_nnlo_mc.LHgrid,    0
# matching scheme = a
# total cross sections [nb] at LO, NLOdiff, NNLOdiff, N3LOdiff =     0.013801    0.017514    0.010146    0.003834
#----------------------------------------------------------------------
# the lines that follow give the jet-veto efficiencies as a function of pt
#         pt            matched eff      resummed eff     fixed-order eff
   2.00000000E+001   4.67312512E-001   5.42311942E-001   4.70549319E-001
   2.50000000E+001   5.52599432E-001   6.15661587E-001   5.55098689E-001
   3.00000000E+001   6.23705432E-001   6.58800907E-001   6.25631507E-001
   3.50000000E+001   6.78973663E-001   6.82274363E-001   6.80214785E-001
   4.00000000E+001   7.23542843E-001   6.94603427E-001   7.24327023E-001
   4.50000000E+001   7.59611533E-001   7.01118668E-001   7.60109480E-001
   5.00000000E+001   7.90082644E-001   7.04667433E-001   7.90410150E-001
   5.50000000E+001   8.16042440E-001   7.06678092E-001   8.16264683E-001
   6.00000000E+001   8.37882345E-001   7.07864207E-001   8.38035676E-001
   6.50000000E+001   8.57317267E-001   7.08590911E-001   8.57426760E-001
   7.00000000E+001   8.73665840E-001   7.09051665E-001   8.73744963E-001
   7.50000000E+001   8.87284747E-001   7.09352867E-001   8.87342330E-001
   8.00000000E+001   8.99237484E-001   7.09555190E-001   8.99280183E-001
   8.50000000E+001   9.10013710E-001   7.09694418E-001   9.10046058E-001
   9.00000000E+001   9.19192598E-001   7.09792312E-001   9.19217312E-001
   9.50000000E+001   9.27584496E-001   7.09862486E-001   9.27603719E-001
   1.00000000E+002   9.34609447E-001   7.09913667E-001   9.34624471E-001
   1.05000000E+002   9.40905779E-001   7.09951587E-001   9.40917661E-001
   1.10000000E+002   9.46559634E-001   7.09980082E-001   9.46569141E-001
   1.15000000E+002   9.51640318E-001   7.10001775E-001   9.51647991E-001
   1.20000000E+002   9.56053571E-001   7.10018485E-001   9.56059806E-001
   1.25000000E+002   9.59878217E-001   7.10031498E-001   9.59883314E-001
   1.30000000E+002   9.63707474E-001   7.10041733E-001   9.63711695E-001
   1.35000000E+002   9.67051204E-001   7.10049858E-001   9.67054718E-001
   1.40000000E+002   9.69874350E-001   7.10056363E-001   9.69877285E-001
   1.45000000E+002   9.72568635E-001   7.10061613E-001   9.72571106E-001
   1.50000000E+002   9.74850645E-001   7.10065881E-001   9.74852733E-001
   1.55000000E+002   9.77308658E-001   7.10069375E-001   9.77310440E-001
   1.60000000E+002   9.78982800E-001   7.10072255E-001   9.78984317E-001
   1.65000000E+002   9.80774325E-001   7.10074641E-001   9.80775628E-001
   1.70000000E+002   9.82341188E-001   7.10076631E-001   9.82342311E-001
   1.75000000E+002   9.83861777E-001   7.10078299E-001   9.83862750E-001
   1.80000000E+002   9.85257440E-001   7.10079703E-001   9.85258287E-001
   1.85000000E+002   9.86510975E-001   7.10080893E-001   9.86511714E-001
   1.90000000E+002   9.87390679E-001   7.10081904E-001   9.87391325E-001
   1.95000000E+002   9.88517594E-001   7.10082767E-001   9.88518162E-001
   2.00000000E+002   9.89473856E-001   7.10083507E-001   9.89474357E-001
   2.05000000E+002   9.90296696E-001   7.10084144E-001   9.90297139E-001
   2.10000000E+002   9.91032834E-001   7.10084694E-001   9.91033226E-001
   2.15000000E+002   9.91849017E-001   7.10085171E-001   9.91849366E-001
   2.20000000E+002   9.92440457E-001   7.10085586E-001   9.92440768E-001
   2.25000000E+002   9.93063398E-001   7.10085948E-001   9.93063675E-001
   2.30000000E+002   9.93644033E-001   7.10086265E-001   9.93644282E-001
   2.35000000E+002   9.94181284E-001   7.10086543E-001   9.94181508E-001
   2.40000000E+002   9.94545862E-001   7.10086788E-001   9.94546063E-001
   2.45000000E+002   9.95034343E-001   7.10087004E-001   9.95034525E-001
