# ./jetvheto -in n3lo-fixed-order/H125-LHC13-R04-mb-0-mt-1725-xmur050-xmuf025-log.fxd -xQ 0.25 -out benchmarks-n3lo-smallR/H125-LHC13-R04-mb-0-mt-1725-xmur050-xmuf025-xQ025-N3LO+NNLLa.res -scheme a -order 2 -ptmax 500.01 -fixed_order 3 -loop-mass t
# process = H    
# collider = pp   
# rts =  13000.000
# M   =    125.000
# muR =     62.500
# muF =     31.250
# Q   =     31.250
# p   =      5.000
# include_c1_squared =   F
# loop_mass  = t   
# alphas(MZ) =    0.11800
# alphas(M) =    0.11264
# alphas(muR) =    0.12516
# Rjet =      0.400
# order = NNLL
# pdf name and set = PDF4LHC15_nnlo_mc.LHgrid,    0
# matching scheme = a
# total cross sections [nb] at LO, NLOdiff, NNLOdiff, N3LOdiff =     0.014513    0.020714    0.009723    0.001827
#----------------------------------------------------------------------
# the lines that follow give the jet-veto efficiencies as a function of pt
#         pt            matched eff      resummed eff     fixed-order eff
   2.00000000E+001   4.50555911E-001   4.84945277E-001   4.54817952E-001
   2.50000000E+001   5.41203375E-001   5.56928130E-001   5.43977450E-001
   3.00000000E+001   6.12381129E-001   5.99873778E-001   6.13968468E-001
   3.50000000E+001   6.69207332E-001   6.23474389E-001   6.70085613E-001
   4.00000000E+001   7.15888760E-001   6.35946699E-001   7.16401980E-001
   4.50000000E+001   7.54854500E-001   6.42561470E-001   7.55172391E-001
   5.00000000E+001   7.87260767E-001   6.46171886E-001   7.87462018E-001
   5.50000000E+001   8.15370286E-001   6.48219899E-001   8.15506260E-001
   6.00000000E+001   8.38587002E-001   6.49428891E-001   8.38678261E-001
   6.50000000E+001   8.57280975E-001   6.50169924E-001   8.57340945E-001
   7.00000000E+001   8.74662534E-001   6.50639887E-001   8.74705056E-001
   7.50000000E+001   8.89474130E-001   6.50947162E-001   8.89504737E-001
   8.00000000E+001   9.01832655E-001   6.51153587E-001   9.01854513E-001
   8.50000000E+001   9.13102811E-001   6.51295649E-001   9.13119046E-001
   9.00000000E+001   9.22999920E-001   6.51395541E-001   9.23012141E-001
   9.50000000E+001   9.30413601E-001   6.51467149E-001   9.30422504E-001
   1.00000000E+002   9.38472901E-001   6.51519379E-001   9.38479882E-001
   1.05000000E+002   9.44700192E-001   6.51558076E-001   9.44705520E-001
   1.10000000E+002   9.50987082E-001   6.51587156E-001   9.50991334E-001
   1.15000000E+002   9.56413304E-001   6.51609294E-001   9.56416694E-001
   1.20000000E+002   9.60722583E-001   6.51626347E-001   9.60725255E-001
   1.25000000E+002   9.64429695E-001   6.51639627E-001   9.64431814E-001
   1.30000000E+002   9.68233137E-001   6.51650072E-001   9.68234866E-001
   1.35000000E+002   9.71379865E-001   6.51658364E-001   9.71381270E-001
   1.40000000E+002   9.74348325E-001   6.51665003E-001   9.74349482E-001
   1.45000000E+002   9.77068716E-001   6.51670361E-001   9.77069676E-001
   1.50000000E+002   9.79384813E-001   6.51674717E-001   9.79385612E-001
   1.55000000E+002   9.81508784E-001   6.51678283E-001   9.81509453E-001
   1.60000000E+002   9.83731761E-001   6.51681221E-001   9.83732332E-001
   1.65000000E+002   9.85377943E-001   6.51683657E-001   9.85378426E-001
   1.70000000E+002   9.86737578E-001   6.51685688E-001   9.86737985E-001
   1.75000000E+002   9.88367246E-001   6.51687390E-001   9.88367598E-001
   1.80000000E+002   9.89480172E-001   6.51688824E-001   9.89480472E-001
   1.85000000E+002   9.90749749E-001   6.51690037E-001   9.90750010E-001
   1.90000000E+002   9.91752654E-001   6.51691069E-001   9.91752879E-001
   1.95000000E+002   9.92827039E-001   6.51691950E-001   9.92827236E-001
   2.00000000E+002   9.93584157E-001   6.51692705E-001   9.93584329E-001
   2.05000000E+002   9.94332729E-001   6.51693356E-001   9.94332879E-001
   2.10000000E+002   9.95015245E-001   6.51693917E-001   9.95015376E-001
   2.15000000E+002   9.95765494E-001   6.51694404E-001   9.95765611E-001
   2.20000000E+002   9.96288417E-001   6.51694827E-001   9.96288520E-001
   2.25000000E+002   9.96910734E-001   6.51695197E-001   9.96910826E-001
   2.30000000E+002   9.97349986E-001   6.51695520E-001   9.97350068E-001
   2.35000000E+002   9.97660630E-001   6.51695804E-001   9.97660702E-001
   2.40000000E+002   9.98118029E-001   6.51696054E-001   9.98118094E-001
   2.45000000E+002   9.98503355E-001   6.51696274E-001   9.98503414E-001
