# ./jetvheto -in n3lo-fixed-order/H125-LHC13-R04-mb-475-mt-1725-xmur100-xmuf100-log.fxd -xQ 0.25 -out benchmarks-n3lo-smallR/H125-LHC13-R04-mb-475-mt-1725-xmur100-xmuf100-xQ025-NNLO+NNLLa.R0-1.0.res -scheme a -order 2 -ptmax 500.01 -fixed_order 2 -small-r -loop-mass t+b -R0 1.0
# process = H    
# collider = pp   
# rts =  13000.000
# M   =    125.000
# muR =    125.000
# muF =    125.000
# Q   =     31.250
# p   =      5.000
# include_c1_squared =   F
# loop_mass  = t+b 
# alphas(MZ) =    0.11800
# alphas(M) =    0.11264
# alphas(muR) =    0.11264
# Rjet =      0.400
# order = NNLL
# pdf name and set = PDF4LHC15_nnlo_mc.LHgrid,    0
# matching scheme = a
# total cross sections [nb] at LO, NLOdiff, NNLOdiff, N3LOdiff =     0.012292    0.016994    0.010146    0.003834
#----------------------------------------------------------------------
# the lines that follow give the jet-veto efficiencies as a function of pt
#         pt            matched eff      resummed eff     fixed-order eff
   2.00000000E+001   4.77787060E-001   5.21188513E-001   4.93150502E-001
   2.50000000E+001   5.64503823E-001   5.91166137E-001   5.75024850E-001
   3.00000000E+001   6.31742546E-001   6.32314034E-001   6.38301171E-001
   3.50000000E+001   6.84808978E-001   6.54702078E-001   6.88801162E-001
   4.00000000E+001   7.27341320E-001   6.66460627E-001   7.29800784E-001
   4.50000000E+001   7.62161294E-001   6.72674276E-001   7.63713984E-001
   5.00000000E+001   7.91146874E-001   6.76058737E-001   7.92155543E-001
   5.50000000E+001   8.15494483E-001   6.77976296E-001   8.16168137E-001
   6.00000000E+001   8.36335567E-001   6.79107487E-001   8.36797648E-001
   6.50000000E+001   8.54259568E-001   6.79800540E-001   8.54584097E-001
   7.00000000E+001   8.69732842E-001   6.80239957E-001   8.69965602E-001
   7.50000000E+001   8.83184389E-001   6.80527210E-001   8.83354565E-001
   8.00000000E+001   8.95023816E-001   6.80720164E-001   8.95150407E-001
   8.50000000E+001   9.05350893E-001   6.80852944E-001   9.05446499E-001
   9.00000000E+001   9.14557635E-001   6.80946305E-001   9.14630889E-001
   9.50000000E+001   9.22651953E-001   6.81013228E-001   9.22708788E-001
   1.00000000E+002   9.29848618E-001   6.81062040E-001   9.29893229E-001
   1.05000000E+002   9.36295667E-001   6.81098203E-001   9.36331059E-001
   1.10000000E+002   9.41980056E-001   6.81125379E-001   9.42008406E-001
   1.15000000E+002   9.47133031E-001   6.81146067E-001   9.47155949E-001
   1.20000000E+002   9.51691046E-001   6.81162003E-001   9.51709725E-001
   1.25000000E+002   9.55862292E-001   6.81174413E-001   9.55877636E-001
   1.30000000E+002   9.59608047E-001   6.81184174E-001   9.59620741E-001
   1.35000000E+002   9.63011190E-001   6.81191923E-001   9.63021762E-001
   1.40000000E+002   9.66059840E-001   6.81198127E-001   9.66068699E-001
   1.45000000E+002   9.68879400E-001   6.81203134E-001   9.68886869E-001
   1.50000000E+002   9.71392867E-001   6.81207205E-001   9.71399196E-001
   1.55000000E+002   9.73716558E-001   6.81210537E-001   9.73721950E-001
   1.60000000E+002   9.75817990E-001   6.81213283E-001   9.75822606E-001
   1.65000000E+002   9.77737260E-001   6.81215559E-001   9.77741229E-001
   1.70000000E+002   9.79497596E-001   6.81217457E-001   9.79501024E-001
   1.75000000E+002   9.81086915E-001   6.81219047E-001   9.81089888E-001
   1.80000000E+002   9.82549704E-001   6.81220387E-001   9.82552292E-001
   1.85000000E+002   9.83885283E-001   6.81221521E-001   9.83887543E-001
   1.90000000E+002   9.85114505E-001   6.81222485E-001   9.85116487E-001
   1.95000000E+002   9.86261490E-001   6.81223308E-001   9.86263234E-001
   2.00000000E+002   9.87299395E-001   6.81224014E-001   9.87300933E-001
   2.05000000E+002   9.88263696E-001   6.81224622E-001   9.88265058E-001
   2.10000000E+002   9.89143381E-001   6.81225147E-001   9.89144590E-001
   2.15000000E+002   9.89936012E-001   6.81225602E-001   9.89937088E-001
   2.20000000E+002   9.90683956E-001   6.81225997E-001   9.90684915E-001
   2.25000000E+002   9.91367905E-001   6.81226342E-001   9.91368764E-001
   2.30000000E+002   9.91998531E-001   6.81226645E-001   9.91999301E-001
   2.35000000E+002   9.92588454E-001   6.81226910E-001   9.92589146E-001
   2.40000000E+002   9.93118161E-001   6.81227143E-001   9.93118784E-001
   2.45000000E+002   9.93620484E-001   6.81227349E-001   9.93621047E-001
