# ./jetvheto -in n3lo-fixed-order/H125-LHC13-R04-heft-xmur050-xmuf050-log.fxd -xQ 0.25 -out benchmarks-n3lo-smallR/H125-LHC13-R04-heft-xmur050-xmuf050-xQ025-NNLO+NNLLb.R0-1.0.res -scheme b -order 2 -ptmax 500.01 -fixed_order 2 -small-r -R0 1.0
# process = H    
# collider = pp   
# rts =  13000.000
# M   =    125.000
# muR =     62.500
# muF =     62.500
# Q   =     31.250
# p   =      5.000
# include_c1_squared =   F
# loop_mass  = none
# alphas(MZ) =    0.11800
# alphas(M) =    0.11264
# alphas(muR) =    0.12516
# Rjet =      0.400
# order = NNLL
# pdf name and set = PDF4LHC15_nnlo_mc.LHgrid,    0
# matching scheme = b
# total cross sections [nb] at LO, NLOdiff, NNLOdiff, N3LOdiff =     0.015055    0.019611    0.008998    0.001413
#----------------------------------------------------------------------
# the lines that follow give the jet-veto efficiencies as a function of pt
#         pt            matched eff      resummed eff     fixed-order eff
   2.00000000E+001   3.75759988E-001   4.91899163E-001   3.20844325E-001
   2.50000000E+001   4.58222517E-001   5.61050378E-001   4.29272444E-001
   3.00000000E+001   5.28814405E-001   6.01998396E-001   5.13978769E-001
   3.50000000E+001   5.89039062E-001   6.24391096E-001   5.81442017E-001
   4.00000000E+001   6.40459600E-001   6.36189452E-001   6.36470582E-001
   4.50000000E+001   6.84228957E-001   6.42435436E-001   6.82049408E-001
   5.00000000E+001   7.21549263E-001   6.45841054E-001   7.20304754E-001
   5.50000000E+001   7.53450197E-001   6.47771757E-001   7.52707770E-001
   6.00000000E+001   7.80754204E-001   6.48911103E-001   7.80293093E-001
   6.50000000E+001   8.04391431E-001   6.49609301E-001   8.04094553E-001
   7.00000000E+001   8.24996478E-001   6.50052039E-001   8.24799203E-001
   7.50000000E+001   8.42824270E-001   6.50341489E-001   8.42689242E-001
   8.00000000E+001   8.58497913E-001   6.50535929E-001   8.58403155E-001
   8.50000000E+001   8.72316626E-001   6.50669737E-001   8.72248607E-001
   9.00000000E+001   8.84540033E-001   6.50763824E-001   8.84490214E-001
   9.50000000E+001   8.95281075E-001   6.50831269E-001   8.95243884E-001
   1.00000000E+002   9.04850384E-001   6.50880461E-001   9.04822178E-001
   1.05000000E+002   9.13319085E-001   6.50916907E-001   9.13297358E-001
   1.10000000E+002   9.20926371E-001   6.50944295E-001   9.20909416E-001
   1.15000000E+002   9.27708337E-001   6.50965145E-001   9.27694941E-001
   1.20000000E+002   9.33821969E-001   6.50981206E-001   9.33811268E-001
   1.25000000E+002   9.39330973E-001   6.50993713E-001   9.39322340E-001
   1.30000000E+002   9.44258433E-001   6.51003551E-001   9.44251399E-001
   1.35000000E+002   9.48741470E-001   6.51011360E-001   9.48735691E-001
   1.40000000E+002   9.52802592E-001   6.51017613E-001   9.52797807E-001
   1.45000000E+002   9.56443448E-001   6.51022659E-001   9.56439457E-001
   1.50000000E+002   9.59789627E-001   6.51026762E-001   9.59786275E-001
   1.55000000E+002   9.62807179E-001   6.51030120E-001   9.62804347E-001
   1.60000000E+002   9.65582077E-001   6.51032888E-001   9.65579670E-001
   1.65000000E+002   9.68084066E-001   6.51035182E-001   9.68082008E-001
   1.70000000E+002   9.70399596E-001   6.51037094E-001   9.70397828E-001
   1.75000000E+002   9.72534080E-001   6.51038697E-001   9.72532555E-001
   1.80000000E+002   9.74461925E-001   6.51040047E-001   9.74460602E-001
   1.85000000E+002   9.76240948E-001   6.51041190E-001   9.76239797E-001
   1.90000000E+002   9.77881558E-001   6.51042162E-001   9.77880551E-001
   1.95000000E+002   9.79376169E-001   6.51042992E-001   9.79375286E-001
   2.00000000E+002   9.80755417E-001   6.51043703E-001   9.80754640E-001
   2.05000000E+002   9.82043440E-001   6.51044316E-001   9.82042753E-001
   2.10000000E+002   9.83213961E-001   6.51044845E-001   9.83213352E-001
   2.15000000E+002   9.84312646E-001   6.51045303E-001   9.84312105E-001
   2.20000000E+002   9.85329888E-001   6.51045702E-001   9.85329407E-001
   2.25000000E+002   9.86241944E-001   6.51046050E-001   9.86241514E-001
   2.30000000E+002   9.87142212E-001   6.51046354E-001   9.87141826E-001
   2.35000000E+002   9.87935980E-001   6.51046621E-001   9.87935633E-001
   2.40000000E+002   9.88688122E-001   6.51046857E-001   9.88687810E-001
   2.45000000E+002   9.89387278E-001   6.51047064E-001   9.89386996E-001
