# ./jetvheto -in n3lo-fixed-order/H125-LHC13-R04-mb-475-mt-1725-xmur100-xmuf100-log.fxd -xQ 0.333 -out benchmarks-n3lo-smallR/H125-LHC13-R04-mb-475-mt-1725-xmur100-xmuf100-xQ033-NNLO+NNLLb.R0-1.5.res -scheme b -order 2 -ptmax 500.01 -fixed_order 2 -small-r -loop-mass t+b -R0 1.5
# process = H    
# collider = pp   
# rts =  13000.000
# M   =    125.000
# muR =    125.000
# muF =    125.000
# Q   =     41.625
# p   =      5.000
# include_c1_squared =   F
# loop_mass  = t+b 
# alphas(MZ) =    0.11800
# alphas(M) =    0.11264
# alphas(muR) =    0.11264
# Rjet =      0.400
# order = NNLL
# pdf name and set = PDF4LHC15_nnlo_mc.LHgrid,    0
# matching scheme = b
# total cross sections [nb] at LO, NLOdiff, NNLOdiff, N3LOdiff =     0.012292    0.016994    0.010146    0.003834
#----------------------------------------------------------------------
# the lines that follow give the jet-veto efficiencies as a function of pt
#         pt            matched eff      resummed eff     fixed-order eff
   2.00000000E+001   3.87765159E-001   5.08091780E-001   3.17550639E-001
   2.50000000E+001   4.70206263E-001   5.84249796E-001   4.27790656E-001
   3.00000000E+001   5.38781463E-001   6.35608988E-001   5.12989288E-001
   3.50000000E+001   5.96666925E-001   6.68802747E-001   5.80985186E-001
   4.00000000E+001   6.45723967E-001   6.89362724E-001   6.36189278E-001
   4.50000000E+001   6.87695687E-001   7.01725715E-001   6.81851830E-001
   5.00000000E+001   7.23785665E-001   7.09086505E-001   7.20147070E-001
   5.50000000E+001   7.54794867E-001   7.13503482E-001   7.52478916E-001
   6.00000000E+001   7.81765722E-001   7.16205160E-001   7.80255597E-001
   6.50000000E+001   8.05214217E-001   7.17898732E-001   8.04204225E-001
   7.00000000E+001   8.25607203E-001   7.18988403E-001   8.24914709E-001
   7.50000000E+001   8.43428154E-001   7.19707630E-001   8.42942328E-001
   8.00000000E+001   8.59173035E-001   7.20193875E-001   8.58824881E-001
   8.50000000E+001   8.72942578E-001   7.20529962E-001   8.72688093E-001
   9.00000000E+001   8.85243705E-001   7.20767005E-001   8.85054448E-001
   9.50000000E+001   8.96074023E-001   7.20937296E-001   8.95930965E-001
   1.00000000E+002   9.05714210E-001   7.21061698E-001   9.05604482E-001
   1.05000000E+002   9.14358010E-001   7.21153972E-001   9.14272722E-001
   1.10000000E+002   9.21984111E-001   7.21223374E-001   9.21917006E-001
   1.15000000E+002   9.28901311E-001   7.21276243E-001   9.28847935E-001
   1.20000000E+002   9.35022276E-001   7.21316989E-001   9.34979383E-001
   1.25000000E+002   9.40626070E-001   7.21348732E-001   9.40591281E-001
   1.30000000E+002   9.45659658E-001   7.21373706E-001   9.45631198E-001
   1.35000000E+002   9.50233980E-001   7.21393537E-001   9.50210516E-001
   1.40000000E+002   9.54332569E-001   7.21409417E-001   9.54313076E-001
   1.45000000E+002   9.58123907E-001   7.21422235E-001   9.58107610E-001
   1.50000000E+002   9.61504060E-001   7.21432658E-001   9.61490343E-001
   1.55000000E+002   9.64629436E-001   7.21441192E-001   9.64617823E-001
   1.60000000E+002   9.67456143E-001   7.21448223E-001   9.67446259E-001
   1.65000000E+002   9.70038052E-001   7.21454053E-001   9.70029596E-001
   1.70000000E+002   9.72406348E-001   7.21458913E-001   9.72399079E-001
   1.75000000E+002   9.74544689E-001   7.21462987E-001   9.74538410E-001
   1.80000000E+002   9.76512914E-001   7.21466418E-001   9.76507469E-001
   1.85000000E+002   9.78310066E-001   7.21469323E-001   9.78305324E-001
   1.90000000E+002   9.79964184E-001   7.21471793E-001   9.79960040E-001
   1.95000000E+002   9.81507716E-001   7.21473902E-001   9.81504081E-001
   2.00000000E+002   9.82904495E-001   7.21475711E-001   9.82901295E-001
   2.05000000E+002   9.84202270E-001   7.21477267E-001   9.84199444E-001
   2.10000000E+002   9.85386196E-001   7.21478612E-001   9.85383694E-001
   2.15000000E+002   9.86452978E-001   7.21479777E-001   9.86450755E-001
   2.20000000E+002   9.87459651E-001   7.21480791E-001   9.87457670E-001
   2.25000000E+002   9.88380210E-001   7.21481675E-001   9.88378441E-001
   2.30000000E+002   9.89229013E-001   7.21482449E-001   9.89227429E-001
   2.35000000E+002   9.90023051E-001   7.21483128E-001   9.90021629E-001
   2.40000000E+002   9.90736041E-001   7.21483726E-001   9.90734762E-001
   2.45000000E+002   9.91412189E-001   7.21484254E-001   9.91411035E-001
