# ./jetvheto -in n3lo-fixed-order/H125-LHC13-R04-mb-475-mt-1725-xmur050-xmuf050-log.fxd -xQ 0.5 -out benchmarks-n3lo-smallR/H125-LHC13-R04-mb-475-mt-1725-xmur050-xmuf050-xQ050-N3LO+NNLLa.res -scheme a -order 2 -ptmax 500.01 -fixed_order 3 -loop-mass t+b
# process = H    
# collider = pp   
# rts =  13000.000
# M   =    125.000
# muR =     62.500
# muF =     62.500
# Q   =     62.500
# p   =      5.000
# include_c1_squared =   F
# loop_mass  = t+b 
# alphas(MZ) =    0.11800
# alphas(M) =    0.11264
# alphas(muR) =    0.12516
# Rjet =      0.400
# order = NNLL
# pdf name and set = PDF4LHC15_nnlo_mc.LHgrid,    0
# matching scheme = a
# total cross sections [nb] at LO, NLOdiff, NNLOdiff, N3LOdiff =     0.014147    0.020254    0.008998    0.001413
#----------------------------------------------------------------------
# the lines that follow give the jet-veto efficiencies as a function of pt
#         pt            matched eff      resummed eff     fixed-order eff
   2.00000000E+001   4.43884821E-001   4.72923705E-001   4.41074844E-001
   2.50000000E+001   5.31250210E-001   5.48490960E-001   5.26291803E-001
   3.00000000E+001   6.04878541E-001   6.01936543E-001   5.99588615E-001
   3.50000000E+001   6.63584283E-001   6.39271215E-001   6.58104134E-001
   4.00000000E+001   7.09126397E-001   6.64876548E-001   7.03699261E-001
   4.50000000E+001   7.48791314E-001   6.81983807E-001   7.43908515E-001
   5.00000000E+001   7.80503317E-001   6.93058689E-001   7.76267730E-001
   5.50000000E+001   8.07953194E-001   6.99999105E-001   8.04438345E-001
   6.00000000E+001   8.30514471E-001   7.04228132E-001   8.27667847E-001
   6.50000000E+001   8.51327764E-001   7.06754775E-001   8.49073502E-001
   7.00000000E+001   8.67540694E-001   7.08252236E-001   8.65767048E-001
   7.50000000E+001   8.82059267E-001   7.09143318E-001   8.80674091E-001
   8.00000000E+001   8.95219016E-001   7.09681244E-001   8.94138038E-001
   8.50000000E+001   9.06952577E-001   7.10013072E-001   9.06106835E-001
   9.00000000E+001   9.17275929E-001   7.10223295E-001   9.16611008E-001
   9.50000000E+001   9.25604430E-001   7.10360347E-001   9.25078477E-001
   1.00000000E+002   9.33520618E-001   7.10452284E-001   9.33101787E-001
   1.05000000E+002   9.39921488E-001   7.10515663E-001   9.39585604E-001
   1.10000000E+002   9.45766507E-001   7.10560472E-001   9.45495190E-001
   1.15000000E+002   9.51314773E-001   7.10592884E-001   9.51094105E-001
   1.20000000E+002   9.56288395E-001   7.10616815E-001   9.56107678E-001
   1.25000000E+002   9.60445290E-001   7.10634807E-001   9.60296277E-001
   1.30000000E+002   9.64061643E-001   7.10648556E-001   9.63938023E-001
   1.35000000E+002   9.67650071E-001   7.10659212E-001   9.67546891E-001
   1.40000000E+002   9.70916860E-001   7.10667578E-001   9.70830250E-001
   1.45000000E+002   9.73737738E-001   7.10674220E-001   9.73664645E-001
   1.50000000E+002   9.75949840E-001   7.10679548E-001   9.75887820E-001
   1.55000000E+002   9.78464398E-001   7.10683861E-001   9.78411529E-001
   1.60000000E+002   9.80713373E-001   7.10687381E-001   9.80668095E-001
   1.65000000E+002   9.82113097E-001   7.10690277E-001   9.82074144E-001
   1.70000000E+002   9.83883689E-001   7.10692675E-001   9.83850040E-001
   1.75000000E+002   9.85549819E-001   7.10694674E-001   9.85520635E-001
   1.80000000E+002   9.86822751E-001   7.10696349E-001   9.86797346E-001
   1.85000000E+002   9.87997588E-001   7.10697762E-001   9.87975392E-001
   1.90000000E+002   9.89191796E-001   7.10698959E-001   9.89172337E-001
   1.95000000E+002   9.90291926E-001   7.10699979E-001   9.90274812E-001
   2.00000000E+002   9.91261461E-001   7.10700850E-001   9.91246363E-001
   2.05000000E+002   9.92035778E-001   7.10701599E-001   9.92022417E-001
   2.10000000E+002   9.92807263E-001   7.10702244E-001   9.92795408E-001
   2.15000000E+002   9.93413470E-001   7.10702803E-001   9.93402921E-001
   2.20000000E+002   9.94268721E-001   7.10703288E-001   9.94259310E-001
   2.25000000E+002   9.94714795E-001   7.10703711E-001   9.94706379E-001
   2.30000000E+002   9.95256889E-001   7.10704080E-001   9.95249343E-001
   2.35000000E+002   9.95660780E-001   7.10704405E-001   9.95654001E-001
   2.40000000E+002   9.96094087E-001   7.10704690E-001   9.96087982E-001
   2.45000000E+002   9.96591211E-001   7.10704941E-001   9.96585702E-001
