# ./jetvheto -in n3lo-fixed-order/H125-LHC13-R04-heft-xmur200-xmuf100-log.fxd -xQ 0.50 -out benchmarks-n3lo-smallR/H125-LHC13-R04-heft-xmur200-xmuf100-xQ050-NNLO+NNLLa.res -scheme a -order 2 -ptmax 500.01 -fixed_order 2
# process = H    
# collider = pp   
# rts =  13000.000
# M   =    125.000
# muR =    250.000
# muF =    125.000
# Q   =     62.500
# p   =      5.000
# include_c1_squared =   F
# loop_mass  = none
# alphas(MZ) =    0.11800
# alphas(M) =    0.11264
# alphas(muR) =    0.10244
# Rjet =      0.400
# order = NNLL
# pdf name and set = PDF4LHC15_nnlo_mc.LHgrid,    0
# matching scheme = a
# total cross sections [nb] at LO, NLOdiff, NNLOdiff, N3LOdiff =     0.010706    0.014429    0.010526    0.005600
#----------------------------------------------------------------------
# the lines that follow give the jet-veto efficiencies as a function of pt
#         pt            matched eff      resummed eff     fixed-order eff
   2.00000000E+001   4.90865955E-001   5.22566641E-001   5.40523476E-001
   2.50000000E+001   5.81294980E-001   6.08321156E-001   6.16280278E-001
   3.00000000E+001   6.51512002E-001   6.69737197E-001   6.74064098E-001
   3.50000000E+001   7.06343485E-001   7.13190766E-001   7.19528581E-001
   4.00000000E+001   7.49634405E-001   7.43397726E-001   7.56335383E-001
   4.50000000E+001   7.83993073E-001   7.63905255E-001   7.86552877E-001
   5.00000000E+001   8.11638603E-001   7.77444473E-001   8.11806384E-001
   5.50000000E+001   8.34140191E-001   7.86133169E-001   8.33110370E-001
   6.00000000E+001   8.52812447E-001   7.91580027E-001   8.51324983E-001
   6.50000000E+001   8.68571454E-001   7.94947329E-001   8.67030652E-001
   7.00000000E+001   8.81976187E-001   7.97024012E-001   8.80571642E-001
   7.50000000E+001   8.93609139E-001   7.98315975E-001   8.92407316E-001
   8.00000000E+001   9.03767195E-001   7.99133939E-001   9.02772815E-001
   8.50000000E+001   9.12668036E-001   7.99663802E-001   9.11859395E-001
   9.00000000E+001   9.20594544E-001   8.00015907E-001   9.19942168E-001
   9.50000000E+001   9.27593545E-001   8.00256002E-001   9.27068378E-001
   1.00000000E+002   9.33838506E-001   8.00423800E-001   9.33415174E-001
   1.05000000E+002   9.39428011E-001   8.00543766E-001   9.39085598E-001
   1.10000000E+002   9.44417466E-001   8.00631312E-001   9.44139203E-001
   1.15000000E+002   9.48932623E-001   8.00696380E-001   9.48705279E-001
   1.20000000E+002   9.52990160E-001   8.00745539E-001   9.52803352E-001
   1.25000000E+002   9.56653210E-001   8.00783221E-001   9.56498829E-001
   1.30000000E+002   9.59963250E-001   8.00812482E-001   9.59834932E-001
   1.35000000E+002   9.62983565E-001   8.00835469E-001   9.62876307E-001
   1.40000000E+002   9.65695748E-001   8.00853718E-001   9.65605603E-001
   1.45000000E+002   9.68203630E-001   8.00868343E-001   9.68127472E-001
   1.50000000E+002   9.70451509E-001   8.00880166E-001   9.70386843E-001
   1.55000000E+002   9.72515928E-001   8.00889799E-001   9.72460757E-001
   1.60000000E+002   9.74418058E-001   8.00897705E-001   9.74370771E-001
   1.65000000E+002   9.76147472E-001   8.00904237E-001   9.76106767E-001
   1.70000000E+002   9.77751492E-001   8.00909668E-001   9.77716306E-001
   1.75000000E+002   9.79206762E-001   8.00914210E-001   9.79176227E-001
   1.80000000E+002   9.80560892E-001   8.00918028E-001   9.80534293E-001
   1.85000000E+002   9.81796006E-001   8.00921254E-001   9.81772754E-001
   1.90000000E+002   9.82937941E-001   8.00923994E-001   9.82917545E-001
   1.95000000E+002   9.84010650E-001   8.00926330E-001   9.83992701E-001
   2.00000000E+002   9.84995845E-001   8.00928331E-001   9.84979999E-001
   2.05000000E+002   9.85910617E-001   8.00930052E-001   9.85896587E-001
   2.10000000E+002   9.86752582E-001   8.00931538E-001   9.86740124E-001
   2.15000000E+002   9.87525645E-001   8.00932824E-001   9.87514554E-001
   2.20000000E+002   9.88251726E-001   8.00933943E-001   9.88241826E-001
   2.25000000E+002   9.88924190E-001   8.00934918E-001   9.88915331E-001
   2.30000000E+002   9.89553052E-001   8.00935771E-001   9.89545106E-001
   2.35000000E+002   9.90151091E-001   8.00936519E-001   9.90143947E-001
   2.40000000E+002   9.90695542E-001   8.00937178E-001   9.90689106E-001
   2.45000000E+002   9.91209062E-001   8.00937759E-001   9.91203251E-001
