# ./jetvheto -in n3lo-fixed-order/H125-LHC13-R04-heft-xmur200-xmuf200-log.fxd -xQ 0.50 -out benchmarks-n3lo-smallR/H125-LHC13-R04-heft-xmur200-xmuf200-xQ050-N3LO+NNLLa.R0-1.0.res -scheme a -order 2 -ptmax 500.01 -fixed_order 3 -small-r -R0 1.0
# process = H    
# collider = pp   
# rts =  13000.000
# M   =    125.000
# muR =    250.000
# muF =    250.000
# Q   =     62.500
# p   =      5.000
# include_c1_squared =   F
# loop_mass  = none
# alphas(MZ) =    0.11800
# alphas(M) =    0.11264
# alphas(muR) =    0.10244
# Rjet =      0.400
# order = NNLL
# pdf name and set = PDF4LHC15_nnlo_mc.LHgrid,    0
# matching scheme = a
# total cross sections [nb] at LO, NLOdiff, NNLOdiff, N3LOdiff =     0.011138    0.014625    0.010464    0.005358
#----------------------------------------------------------------------
# the lines that follow give the jet-veto efficiencies as a function of pt
#         pt            matched eff      resummed eff     fixed-order eff
   2.00000000E+001   4.71831090E-001   5.40582346E-001   4.82167206E-001
   2.50000000E+001   5.60096385E-001   6.24276083E-001   5.67551507E-001
   3.00000000E+001   6.28664227E-001   6.83480179E-001   6.32598237E-001
   3.50000000E+001   6.84056148E-001   7.24848638E-001   6.85290493E-001
   4.00000000E+001   7.28650564E-001   7.53214162E-001   7.28034523E-001
   4.50000000E+001   7.64277041E-001   7.72159205E-001   7.62571711E-001
   5.00000000E+001   7.94884392E-001   7.84416440E-001   7.92748423E-001
   5.50000000E+001   8.19512639E-001   7.92088033E-001   8.17326746E-001
   6.00000000E+001   8.40294357E-001   7.96751213E-001   8.38291240E-001
   6.50000000E+001   8.57768788E-001   7.99528039E-001   8.56045728E-001
   7.00000000E+001   8.73581312E-001   8.01166960E-001   8.72155634E-001
   7.50000000E+001   8.86621132E-001   8.02137384E-001   8.85467316E-001
   8.00000000E+001   8.97993623E-001   8.02719906E-001   8.97070806E-001
   8.50000000E+001   9.08130238E-001   8.03077166E-001   9.07395959E-001
   9.00000000E+001   9.16839698E-001   8.03302112E-001   9.16255532E-001
   9.50000000E+001   9.24993084E-001   8.03447823E-001   9.24527125E-001
   1.00000000E+002   9.31859972E-001   8.03544957E-001   9.31486782E-001
   1.05000000E+002   9.37926189E-001   8.03611542E-001   9.37625606E-001
   1.10000000E+002   9.43205602E-001   8.03658377E-001   9.42962057E-001
   1.15000000E+002   9.48197879E-001   8.03692103E-001   9.47999286E-001
   1.20000000E+002   9.52744855E-001   8.03716904E-001   9.52581879E-001
   1.25000000E+002   9.56519090E-001   8.03735489E-001   9.56384544E-001
   1.30000000E+002   9.60121817E-001   8.03749648E-001   9.60010054E-001
   1.35000000E+002   9.63228772E-001   8.03760596E-001   9.63135390E-001
   1.40000000E+002   9.66337527E-001   8.03769172E-001   9.66259059E-001
   1.45000000E+002   9.68813489E-001   8.03775970E-001   9.68747214E-001
   1.50000000E+002   9.71243060E-001   8.03781414E-001   9.71186792E-001
   1.55000000E+002   9.73415541E-001   8.03785816E-001   9.73367540E-001
   1.60000000E+002   9.75328938E-001   8.03789406E-001   9.75287799E-001
   1.65000000E+002   9.76988753E-001   8.03792355E-001   9.76953344E-001
   1.70000000E+002   9.78750397E-001   8.03794796E-001   9.78719789E-001
   1.75000000E+002   9.80194459E-001   8.03796829E-001   9.80167900E-001
   1.80000000E+002   9.81751865E-001   8.03798533E-001   9.81728729E-001
   1.85000000E+002   9.82888257E-001   8.03799969E-001   9.82868033E-001
   1.90000000E+002   9.84049661E-001   8.03801185E-001   9.84031922E-001
   1.95000000E+002   9.85085691E-001   8.03802220E-001   9.85070082E-001
   2.00000000E+002   9.86214488E-001   8.03803105E-001   9.86200709E-001
   2.05000000E+002   9.87010362E-001   8.03803865E-001   9.86998163E-001
   2.10000000E+002   9.87771329E-001   8.03804520E-001   9.87760499E-001
   2.15000000E+002   9.88590356E-001   8.03805086E-001   9.88580715E-001
   2.20000000E+002   9.89350761E-001   8.03805578E-001   9.89342156E-001
   2.25000000E+002   9.89955560E-001   8.03806007E-001   9.89947861E-001
   2.30000000E+002   9.90537560E-001   8.03806382E-001   9.90530655E-001
   2.35000000E+002   9.91137625E-001   8.03806710E-001   9.91131417E-001
   2.40000000E+002   9.91670719E-001   8.03806999E-001   9.91665127E-001
   2.45000000E+002   9.92185375E-001   8.03807254E-001   9.92180327E-001
