# ./jetvheto -in n3lo-fixed-order/H125-LHC13-R04-mb-0-mt-1725-xmur100-xmuf100-log.fxd -xQ 0.75 -out benchmarks-n3lo-smallR/H125-LHC13-R04-mb-0-mt-1725-xmur100-xmuf100-xQ075-NNLO+NNLLa.R0-0.5.res -scheme a -order 2 -ptmax 500.01 -small-r -fixed_order 2 -loop-mass t -R0 0.5
# process = H    
# collider = pp   
# rts =  13000.000
# M   =    125.000
# muR =    125.000
# muF =    125.000
# Q   =     93.750
# p   =      5.000
# include_c1_squared =   F
# loop_mass  = t   
# alphas(MZ) =    0.11800
# alphas(M) =    0.11264
# alphas(muR) =    0.11264
# Rjet =      0.400
# order = NNLL
# pdf name and set = PDF4LHC15_nnlo_mc.LHgrid,    0
# matching scheme = a
# total cross sections [nb] at LO, NLOdiff, NNLOdiff, N3LOdiff =     0.013801    0.017514    0.010146    0.003834
#----------------------------------------------------------------------
# the lines that follow give the jet-veto efficiencies as a function of pt
#         pt            matched eff      resummed eff     fixed-order eff
   2.00000000E+001   5.07816015E-001   5.45518834E-001   5.12111256E-001
   2.50000000E+001   5.99520418E-001   6.32691735E-001   5.93117916E-001
   3.00000000E+001   6.70453278E-001   6.94668232E-001   6.55183932E-001
   3.50000000E+001   7.25997338E-001   7.38389462E-001   7.04312652E-001
   4.00000000E+001   7.69901336E-001   7.68812194E-001   7.44112204E-001
   4.50000000E+001   8.04703477E-001   7.89473226E-001   7.76741158E-001
   5.00000000E+001   8.32599587E-001   8.02915557E-001   8.03999724E-001
   5.50000000E+001   8.55016817E-001   8.11025201E-001   8.26956486E-001
   6.00000000E+001   8.73250131E-001   8.15234071E-001   8.46582419E-001
   6.50000000E+001   8.88148302E-001   8.16654720E-001   8.63449624E-001
   7.00000000E+001   9.00336818E-001   8.16160623E-001   8.77952928E-001
   7.50000000E+001   9.10579452E-001   8.14434841E-001   8.90657633E-001
   8.00000000E+001   9.19244063E-001   8.12003835E-001   9.01784587E-001
   8.50000000E+001   9.26603764E-001   8.09258293E-001   9.11498483E-001
   9.00000000E+001   9.33035125E-001   8.06472614E-001   9.20097826E-001
   9.50000000E+001   9.38660534E-001   8.03823433E-001   9.27666371E-001
   1.00000000E+002   9.43709334E-001   8.01410989E-001   9.34417045E-001
   1.05000000E+002   9.48260871E-001   7.99279835E-001   9.40434122E-001
   1.10000000E+002   9.52329160E-001   7.97437261E-001   9.45748990E-001
   1.15000000E+002   9.56100414E-001   7.95868134E-001   9.50569353E-001
   1.20000000E+002   9.59520105E-001   7.94545539E-001   9.54867362E-001
   1.25000000E+002   9.62674223E-001   7.93438145E-001   9.58753493E-001
   1.30000000E+002   9.65579586E-001   7.92514550E-001   9.62267892E-001
   1.35000000E+002   9.68234586E-001   7.91745650E-001   9.65429419E-001
   1.40000000E+002   9.70671506E-001   7.91105696E-001   9.68287981E-001
   1.45000000E+002   9.72948223E-001   7.90572584E-001   9.70915959E-001
   1.50000000E+002   9.74998208E-001   7.90127695E-001   9.73259576E-001
   1.55000000E+002   9.76919537E-001   7.89755553E-001   9.75426757E-001
   1.60000000E+002   9.78691841E-001   7.89443393E-001   9.77405590E-001
   1.65000000E+002   9.80308311E-001   7.89180740E-001   9.79196168E-001
   1.70000000E+002   9.81806656E-001   7.88959020E-001   9.80841717E-001
   1.75000000E+002   9.83160546E-001   7.88771223E-001   9.82320552E-001
   1.80000000E+002   9.84425976E-001   7.88611614E-001   9.83692327E-001
   1.85000000E+002   9.85579274E-001   7.88475498E-001   9.84936490E-001
   1.90000000E+002   9.86653947E-001   7.88359023E-001   9.86089030E-001
   1.95000000E+002   9.87652689E-001   7.88259020E-001   9.87154723E-001
   2.00000000E+002   9.88560307E-001   7.88172879E-001   9.88120114E-001
   2.05000000E+002   9.89411860E-001   7.88098441E-001   9.89021653E-001
   2.10000000E+002   9.90183191E-001   7.88033915E-001   9.89836384E-001
   2.15000000E+002   9.90888653E-001   7.87977812E-001   9.90579634E-001
   2.20000000E+002   9.91553176E-001   7.87928889E-001   9.91277142E-001
   2.25000000E+002   9.92162289E-001   7.87886106E-001   9.91915136E-001
   2.30000000E+002   9.92727732E-001   7.87848590E-001   9.92505931E-001
   2.35000000E+002   9.93259671E-001   7.87815605E-001   9.93060180E-001
   2.40000000E+002   9.93737139E-001   7.87786529E-001   9.93557338E-001
   2.45000000E+002   9.94187494E-001   7.87760836E-001   9.94025107E-001
