# ./jetvheto -in n3lo-fixed-order/H125-LHC13-R04-mb-475-mt-1725-xmur100-xmuf200-log.fxd -xQ 0.5 -out benchmarks-n3lo-smallR/H125-LHC13-R04-mb-475-mt-1725-xmur100-xmuf200-xQ050-NNLO+NNLLb.res -scheme b -order 2 -ptmax 500.01 -fixed_order 2 -loop-mass t+b
# process = H    
# collider = pp   
# rts =  13000.000
# M   =    125.000
# muR =    125.000
# muF =    250.000
# Q   =     62.500
# p   =      5.000
# include_c1_squared =   F
# loop_mass  = t+b 
# alphas(MZ) =    0.11800
# alphas(M) =    0.11264
# alphas(muR) =    0.11264
# Rjet =      0.400
# order = NNLL
# pdf name and set = PDF4LHC15_nnlo_mc.LHgrid,    0
# matching scheme = b
# total cross sections [nb] at LO, NLOdiff, NNLOdiff, N3LOdiff =     0.012791    0.017144    0.009991    0.003297
#----------------------------------------------------------------------
# the lines that follow give the jet-veto efficiencies as a function of pt
#         pt            matched eff      resummed eff     fixed-order eff
   2.00000000E+001   4.08074873E-001   5.13172963E-001   3.29106479E-001
   2.50000000E+001   4.93704711E-001   5.92192249E-001   4.39529527E-001
   3.00000000E+001   5.63236576E-001   6.47679372E-001   5.24122484E-001
   3.50000000E+001   6.20530966E-001   6.86138896E-001   5.91301191E-001
   4.00000000E+001   6.68019343E-001   7.12266330E-001   6.45740756E-001
   4.50000000E+001   7.07831126E-001   7.29522987E-001   6.90716080E-001
   5.00000000E+001   7.41436315E-001   7.40533642E-001   7.28255957E-001
   5.50000000E+001   7.70115988E-001   7.47303878E-001   7.59993542E-001
   6.00000000E+001   7.94678546E-001   7.51326446E-001   7.86927122E-001
   6.50000000E+001   8.16068074E-001   7.53653081E-001   8.10143416E-001
   7.00000000E+001   8.34833261E-001   7.54977022E-001   8.30304175E-001
   7.50000000E+001   8.51260954E-001   7.55726666E-001   8.47789344E-001
   8.00000000E+001   8.65844058E-001   7.56153410E-001   8.63170279E-001
   8.50000000E+001   8.78665596E-001   7.56399677E-001   8.76593282E-001
   9.00000000E+001   8.90090095E-001   7.56544621E-001   8.88472295E-001
   9.50000000E+001   9.00224351E-001   7.56631950E-001   8.98951354E-001
   1.00000000E+002   9.09198738E-001   7.56685944E-001   9.08188939E-001
   1.05000000E+002   9.17333697E-001   7.56720256E-001   9.16526121E-001
   1.10000000E+002   9.24596120E-001   7.56742663E-001   9.23945186E-001
   1.15000000E+002   9.31122243E-001   7.56757690E-001   9.30593517E-001
   1.20000000E+002   9.36984787E-001   7.56768027E-001   9.36552205E-001
   1.25000000E+002   9.42246294E-001   7.56775310E-001   9.41889900E-001
   1.30000000E+002   9.46999047E-001   7.56780558E-001   9.46703480E-001
   1.35000000E+002   9.51344284E-001   7.56784417E-001   9.51097632E-001
   1.40000000E+002   9.55259527E-001   7.56787309E-001   9.55052473E-001
   1.45000000E+002   9.58807820E-001   7.56789513E-001   9.58633039E-001
   1.50000000E+002   9.62046626E-001   7.56791218E-001   9.61898307E-001
   1.55000000E+002   9.64982973E-001   7.56792557E-001   9.64856482E-001
   1.60000000E+002   9.67694262E-001   7.56793621E-001   9.67585880E-001
   1.65000000E+002   9.70163632E-001   7.56794475E-001   9.70070351E-001
   1.70000000E+002   9.72411387E-001   7.56795169E-001   9.72330764E-001
   1.75000000E+002   9.74432551E-001   7.56795737E-001   9.74362593E-001
   1.80000000E+002   9.76323021E-001   7.56796206E-001   9.76262084E-001
   1.85000000E+002   9.78061627E-001   7.56796596E-001   9.78008356E-001
   1.90000000E+002   9.79631370E-001   7.56796923E-001   9.79584644E-001
   1.95000000E+002   9.81085741E-001   7.56797199E-001   9.81044620E-001
   2.00000000E+002   9.82410940E-001   7.56797433E-001   9.82374640E-001
   2.05000000E+002   9.83643225E-001   7.56797632E-001   9.83611085E-001
   2.10000000E+002   9.84783349E-001   7.56797803E-001   9.84754813E-001
   2.15000000E+002   9.85834744E-001   7.56797950E-001   9.85809338E-001
   2.20000000E+002   9.86798883E-001   7.56798077E-001   9.86776206E-001
   2.25000000E+002   9.87683995E-001   7.56798187E-001   9.87663703E-001
   2.30000000E+002   9.88517341E-001   7.56798283E-001   9.88499140E-001
   2.35000000E+002   9.89293951E-001   7.56798366E-001   9.89277589E-001
   2.40000000E+002   9.89978485E-001   7.56798440E-001   9.89963744E-001
   2.45000000E+002   9.90638332E-001   7.56798504E-001   9.90625024E-001
