# ./jetvheto -in n3lo-fixed-order/H125-LHC13-R04-heft-xmur200-xmuf200-log.fxd -xQ 0.50 -out benchmarks-n3lo-smallR/H125-LHC13-R04-heft-xmur200-xmuf200-xQ050-NNLO+NNLLb.R0-0.5.res -scheme b -order 2 -ptmax 500.01 -fixed_order 2 -small-r -R0 0.5
# process = H    
# collider = pp   
# rts =  13000.000
# M   =    125.000
# muR =    250.000
# muF =    250.000
# Q   =     62.500
# p   =      5.000
# include_c1_squared =   F
# loop_mass  = none
# alphas(MZ) =    0.11800
# alphas(M) =    0.11264
# alphas(muR) =    0.10244
# Rjet =      0.400
# order = NNLL
# pdf name and set = PDF4LHC15_nnlo_mc.LHgrid,    0
# matching scheme = b
# total cross sections [nb] at LO, NLOdiff, NNLOdiff, N3LOdiff =     0.011138    0.014625    0.010464    0.005358
#----------------------------------------------------------------------
# the lines that follow give the jet-veto efficiencies as a function of pt
#         pt            matched eff      resummed eff     fixed-order eff
   2.00000000E+001   4.27130730E-001   5.38050880E-001   3.60942428E-001
   2.50000000E+001   5.11584723E-001   6.22320596E-001   4.67866112E-001
   3.00000000E+001   5.79744933E-001   6.82001427E-001   5.49013785E-001
   3.50000000E+001   6.35338525E-001   7.23746722E-001   6.12756753E-001
   4.00000000E+001   6.81141536E-001   7.52402816E-001   6.64071100E-001
   4.50000000E+001   7.19505541E-001   7.71567676E-001   7.06413256E-001
   5.00000000E+001   7.51636505E-001   7.83988269E-001   7.41539074E-001
   5.50000000E+001   7.79042748E-001   7.91779254E-001   7.71262535E-001
   6.00000000E+001   8.02468510E-001   7.96528471E-001   7.96490466E-001
   6.50000000E+001   8.22701437E-001   7.99366693E-001   8.18120881E-001
   7.00000000E+001   8.40414210E-001   8.01049225E-001   8.36906804E-001
   7.50000000E+001   8.55881271E-001   8.02050640E-001   8.53190631E-001
   8.00000000E+001   8.69594688E-001   8.02655286E-001   8.67522112E-001
   8.50000000E+001   8.81646836E-001   8.03028462E-001   8.80041029E-001
   9.00000000E+001   8.92413881E-001   8.03264970E-001   8.91160980E-001
   9.50000000E+001   9.01952725E-001   8.03419169E-001   9.00967665E-001
   1.00000000E+002   9.10380186E-001   8.03522606E-001   9.09599568E-001
   1.05000000E+002   9.18019397E-001   8.03593923E-001   9.17395765E-001
   1.10000000E+002   9.24865534E-001   8.03644350E-001   9.24363367E-001
   1.15000000E+002   9.30990822E-001   8.03680831E-001   9.30583365E-001
   1.20000000E+002   9.36516239E-001   8.03707768E-001   9.36183194E-001
   1.25000000E+002   9.41475033E-001   8.03728023E-001   9.41200899E-001
   1.30000000E+002   9.45961806E-001   8.03743501E-001   9.45734656E-001
   1.35000000E+002   9.50080071E-001   8.03755499E-001   9.49890660E-001
   1.40000000E+002   9.53796564E-001   8.03764919E-001   9.53637677E-001
   1.45000000E+002   9.57164313E-001   8.03772398E-001   9.57030282E-001
   1.50000000E+002   9.60235693E-001   8.03778397E-001   9.60122026E-001
   1.55000000E+002   9.63039851E-001   8.03783254E-001   9.62942968E-001
   1.60000000E+002   9.65632991E-001   8.03787218E-001   9.65550019E-001
   1.65000000E+002   9.67991502E-001   8.03790479E-001   9.67920125E-001
   1.70000000E+002   9.70147310E-001   8.03793179E-001   9.70085646E-001
   1.75000000E+002   9.72101962E-001   8.03795430E-001   9.72048475E-001
   1.80000000E+002   9.73921333E-001   8.03797318E-001   9.73874759E-001
   1.85000000E+002   9.75611704E-001   8.03798909E-001   9.75571003E-001
   1.90000000E+002   9.77156504E-001   8.03800257E-001   9.77120811E-001
   1.95000000E+002   9.78587845E-001   8.03801405E-001   9.78556441E-001
   2.00000000E+002   9.79896457E-001   8.03802387E-001   9.79868740E-001
   2.05000000E+002   9.81118623E-001   8.03803230E-001   9.81094087E-001
   2.10000000E+002   9.82253035E-001   8.03803957E-001   9.82231254E-001
   2.15000000E+002   9.83308800E-001   8.03804586E-001   9.83289410E-001
   2.20000000E+002   9.84283626E-001   8.03805132E-001   9.84266320E-001
   2.25000000E+002   9.85187498E-001   8.03805608E-001   9.85172015E-001
   2.30000000E+002   9.86039192E-001   8.03806025E-001   9.86025305E-001
   2.35000000E+002   9.86835740E-001   8.03806390E-001   9.86823257E-001
   2.40000000E+002   9.87557909E-001   8.03806711E-001   9.87546663E-001
   2.45000000E+002   9.88248487E-001   8.03806994E-001   9.88238334E-001
