# ./jetvheto -in n3lo-fixed-order/H125-LHC13-R04-mb-475-mt-1725-xmur100-xmuf100-log.fxd -xQ 0.5 -out benchmarks-n3lo-smallR/H125-LHC13-R04-mb-475-mt-1725-xmur100-xmuf100-xQ050-NNLO+NNLLa.R0-1.5.res -scheme a -order 2 -ptmax 500.01 -fixed_order 2 -small-r -loop-mass t+b -R0 1.5
# process = H    
# collider = pp   
# rts =  13000.000
# M   =    125.000
# muR =    125.000
# muF =    125.000
# Q   =     62.500
# p   =      5.000
# include_c1_squared =   F
# loop_mass  = t+b 
# alphas(MZ) =    0.11800
# alphas(M) =    0.11264
# alphas(muR) =    0.11264
# Rjet =      0.400
# order = NNLL
# pdf name and set = PDF4LHC15_nnlo_mc.LHgrid,    0
# matching scheme = a
# total cross sections [nb] at LO, NLOdiff, NNLOdiff, N3LOdiff =     0.012292    0.016994    0.010146    0.003834
#----------------------------------------------------------------------
# the lines that follow give the jet-veto efficiencies as a function of pt
#         pt            matched eff      resummed eff     fixed-order eff
   2.00000000E+001   4.79676523E-001   5.07250579E-001   4.93150502E-001
   2.50000000E+001   5.67661819E-001   5.85456621E-001   5.75024850E-001
   3.00000000E+001   6.36601651E-001   6.40769511E-001   6.38301171E-001
   3.50000000E+001   6.91227205E-001   6.79415002E-001   6.88801162E-001
   4.00000000E+001   7.34685863E-001   7.05906643E-001   7.29800784E-001
   4.50000000E+001   7.69691089E-001   7.23597136E-001   7.63713984E-001
   5.00000000E+001   7.98244793E-001   7.35042258E-001   7.92155543E-001
   5.50000000E+001   8.21773242E-001   7.42203990E-001   8.16168137E-001
   6.00000000E+001   8.41635930E-001   7.46555320E-001   8.36797648E-001
   6.50000000E+001   8.58590902E-001   7.49145229E-001   8.54584097E-001
   7.00000000E+001   8.73198853E-001   7.50672982E-001   8.69965602E-001
   7.50000000E+001   8.85924939E-001   7.51577035E-001   8.83354565E-001
   8.00000000E+001   8.97179975E-001   7.52119408E-001   8.95150407E-001
   8.50000000E+001   9.07046495E-001   7.52451810E-001   9.05446499E-001
   9.00000000E+001   9.15894856E-001   7.52660951E-001   9.14630889E-001
   9.50000000E+001   9.23711527E-001   7.52796351E-001   9.22708788E-001
   1.00000000E+002   9.30693236E-001   7.52886574E-001   9.29893229E-001
   1.05000000E+002   9.36973444E-001   7.52948384E-001   9.36331059E-001
   1.10000000E+002   9.42527636E-001   7.52991837E-001   9.42008406E-001
   1.15000000E+002   9.47578528E-001   7.53023112E-001   9.47155949E-001
   1.20000000E+002   9.52055925E-001   7.53046101E-001   9.51709725E-001
   1.25000000E+002   9.56163152E-001   7.53063321E-001   9.55877636E-001
   1.30000000E+002   9.59857690E-001   7.53076437E-001   9.59620741E-001
   1.35000000E+002   9.63219593E-001   7.53086575E-001   9.63021762E-001
   1.40000000E+002   9.66234824E-001   7.53094516E-001   9.66068699E-001
   1.45000000E+002   9.69027130E-001   7.53100808E-001   9.68886869E-001
   1.50000000E+002   9.71518236E-001   7.53105847E-001   9.71399196E-001
   1.55000000E+002   9.73823482E-001   7.53109921E-001   9.73721950E-001
   1.60000000E+002   9.75909602E-001   7.53113242E-001   9.75822606E-001
   1.65000000E+002   9.77816103E-001   7.53115971E-001   9.77741229E-001
   1.70000000E+002   9.79565735E-001   7.53118229E-001   9.79501024E-001
   1.75000000E+002   9.81146038E-001   7.53120110E-001   9.81089888E-001
   1.80000000E+002   9.82601197E-001   7.53121686E-001   9.82552292E-001
   1.85000000E+002   9.83930294E-001   7.53123014E-001   9.83887543E-001
   1.90000000E+002   9.85153984E-001   7.53124138E-001   9.85116487E-001
   1.95000000E+002   9.86296231E-001   7.53125096E-001   9.86263234E-001
   2.00000000E+002   9.87330060E-001   7.53125914E-001   9.87300933E-001
   2.05000000E+002   9.88290845E-001   7.53126617E-001   9.88265058E-001
   2.10000000E+002   9.89167485E-001   7.53127222E-001   9.89144590E-001
   2.15000000E+002   9.89957470E-001   7.53127746E-001   9.89937088E-001
   2.20000000E+002   9.90703108E-001   7.53128201E-001   9.90684915E-001
   2.25000000E+002   9.91385042E-001   7.53128598E-001   9.91368764E-001
   2.30000000E+002   9.92013900E-001   7.53128944E-001   9.91999301E-001
   2.35000000E+002   9.92602270E-001   7.53129248E-001   9.92589146E-001
   2.40000000E+002   9.93130607E-001   7.53129515E-001   9.93118784E-001
   2.45000000E+002   9.93631721E-001   7.53129751E-001   9.93621047E-001
