# ./jetvheto -in n3lo-fixed-order/H125-LHC13-R04-mb-0-mt-1725-xmur100-xmuf100-log.fxd -xQ 0.75 -out benchmarks-n3lo-smallR/H125-LHC13-R04-mb-0-mt-1725-xmur100-xmuf100-xQ075-NNLO+NNLLa.R0-1.5.res -scheme a -order 2 -ptmax 500.01 -small-r -fixed_order 2 -loop-mass t -R0 1.5
# process = H    
# collider = pp   
# rts =  13000.000
# M   =    125.000
# muR =    125.000
# muF =    125.000
# Q   =     93.750
# p   =      5.000
# include_c1_squared =   F
# loop_mass  = t   
# alphas(MZ) =    0.11800
# alphas(M) =    0.11264
# alphas(muR) =    0.11264
# Rjet =      0.400
# order = NNLL
# pdf name and set = PDF4LHC15_nnlo_mc.LHgrid,    0
# matching scheme = a
# total cross sections [nb] at LO, NLOdiff, NNLOdiff, N3LOdiff =     0.013801    0.017514    0.010146    0.003834
#----------------------------------------------------------------------
# the lines that follow give the jet-veto efficiencies as a function of pt
#         pt            matched eff      resummed eff     fixed-order eff
   2.00000000E+001   5.23514898E-001   5.62383281E-001   5.12111256E-001
   2.50000000E+001   6.12412022E-001   6.46296628E-001   5.93117916E-001
   3.00000000E+001   6.80950799E-001   7.05544895E-001   6.55183932E-001
   3.50000000E+001   7.34521795E-001   7.47059424E-001   7.04312652E-001
   4.00000000E+001   7.76815218E-001   7.75716296E-001   7.44112204E-001
   4.50000000E+001   8.10304224E-001   7.94967969E-001   7.76741158E-001
   5.00000000E+001   8.37131058E-001   8.07285470E-001   8.03999724E-001
   5.50000000E+001   8.58677118E-001   8.14497176E-001   8.26956486E-001
   6.00000000E+001   8.76201735E-001   8.17989580E-001   8.46582419E-001
   6.50000000E+001   8.90524253E-001   8.18839413E-001   8.63449624E-001
   7.00000000E+001   9.02246360E-001   8.17891634E-001   8.77952928E-001
   7.50000000E+001   9.12112864E-001   8.15806346E-001   8.90657633E-001
   8.00000000E+001   9.20475212E-001   8.13091356E-001   9.01784587E-001
   8.50000000E+001   9.27592847E-001   8.10122119E-001   9.11498483E-001
   9.00000000E+001   9.33831074E-001   8.07160595E-001   9.20097826E-001
   9.50000000E+001   9.39302664E-001   8.04373322E-001   9.27666371E-001
   1.00000000E+002   9.44229129E-001   8.01852407E-001   9.34417045E-001
   1.05000000E+002   9.48683334E-001   7.99635925E-001   9.40434122E-001
   1.10000000E+002   9.52674051E-001   7.97726057E-001   9.45748990E-001
   1.15000000E+002   9.56383371E-001   7.96103670E-001   9.50569353E-001
   1.20000000E+002   9.59753427E-001   7.94738745E-001   9.54867362E-001
   1.25000000E+002   9.62867622E-001   7.93597545E-001   9.58753493E-001
   1.30000000E+002   9.65740730E-001   7.92646812E-001   9.62267892E-001
   1.35000000E+002   9.68369545E-001   7.91856009E-001   9.65429419E-001
   1.40000000E+002   9.70785106E-001   7.91198282E-001   9.68287981E-001
   1.45000000E+002   9.73044317E-001   7.90650666E-001   9.70915959E-001
   1.50000000E+002   9.75079877E-001   7.90193879E-001   9.73259576E-001
   1.55000000E+002   9.76989266E-001   7.89811923E-001   9.75426757E-001
   1.60000000E+002   9.78751637E-001   7.89491626E-001   9.77405590E-001
   1.65000000E+002   9.80359804E-001   7.89222193E-001   9.79196168E-001
   1.70000000E+002   9.81851178E-001   7.88994797E-001   9.80841717E-001
   1.75000000E+002   9.83199189E-001   7.88802225E-001   9.82320552E-001
   1.80000000E+002   9.84459639E-001   7.88638581E-001   9.83692327E-001
   1.85000000E+002   9.85608703E-001   7.88499041E-001   9.84936490E-001
   1.90000000E+002   9.86679760E-001   7.88379648E-001   9.86089030E-001
   1.95000000E+002   9.87675404E-001   7.88277150E-001   9.87154723E-001
   2.00000000E+002   9.88580357E-001   7.88188865E-001   9.88120114E-001
   2.05000000E+002   9.89429609E-001   7.88112579E-001   9.89021653E-001
   2.10000000E+002   9.90198949E-001   7.88046455E-001   9.89836384E-001
   2.15000000E+002   9.90902679E-001   7.87988966E-001   9.90579634E-001
   2.20000000E+002   9.91565694E-001   7.87938836E-001   9.91277142E-001
   2.25000000E+002   9.92173488E-001   7.87894999E-001   9.91915136E-001
   2.30000000E+002   9.92737775E-001   7.87856561E-001   9.92505931E-001
   2.35000000E+002   9.93268698E-001   7.87822765E-001   9.93060180E-001
   2.40000000E+002   9.93745270E-001   7.87792975E-001   9.93557338E-001
   2.45000000E+002   9.94194834E-001   7.87766652E-001   9.94025107E-001
