# ./jetvheto -in n3lo-fixed-order/H125-LHC13-R04-heft-xmur100-xmuf100-log.fxd -xQ 1.00 -out benchmarks-n3lo-smallR/H125-LHC13-R04-heft-xmur100-xmuf100-xQ100-N3LO+NNLLb.R0-1.5.res -scheme b -order 2 -ptmax 500.01 -fixed_order 3 -small-r -R0 1.5
# process = H    
# collider = pp   
# rts =  13000.000
# M   =    125.000
# muR =    125.000
# muF =    125.000
# Q   =    125.000
# p   =      5.000
# include_c1_squared =   F
# loop_mass  = none
# alphas(MZ) =    0.11800
# alphas(M) =    0.11264
# alphas(muR) =    0.11264
# Rjet =      0.400
# order = NNLL
# pdf name and set = PDF4LHC15_nnlo_mc.LHgrid,    0
# matching scheme = b
# total cross sections [nb] at LO, NLOdiff, NNLOdiff, N3LOdiff =     0.012945    0.016716    0.010146    0.003834
#----------------------------------------------------------------------
# the lines that follow give the jet-veto efficiencies as a function of pt
#         pt            matched eff      resummed eff     fixed-order eff
   2.00000000E+001   4.64105372E-001   6.05132312E-001   4.08842854E-001
   2.50000000E+001   5.47437020E-001   6.90483451E-001   5.02042917E-001
   3.00000000E+001   6.18725477E-001   7.50041408E-001   5.80189507E-001
   3.50000000E+001   6.74304315E-001   7.91276502E-001   6.40535859E-001
   4.00000000E+001   7.19451792E-001   8.19343144E-001   6.89380469E-001
   4.50000000E+001   7.56023545E-001   8.37802424E-001   7.29072921E-001
   5.00000000E+001   7.87032448E-001   8.49177948E-001   7.62718280E-001
   5.50000000E+001   8.13507122E-001   8.55299757E-001   7.91464926E-001
   6.00000000E+001   8.35654205E-001   8.57508529E-001   8.15679320E-001
   6.50000000E+001   8.55511914E-001   8.56807849E-001   8.37307615E-001
   7.00000000E+001   8.72042971E-001   8.53970849E-001   8.55527758E-001
   7.50000000E+001   8.85514677E-001   8.49601474E-001   8.70653294E-001
   8.00000000E+001   8.97276820E-001   8.44181267E-001   8.83928611E-001
   8.50000000E+001   9.07920325E-001   8.38097656E-001   8.95926690E-001
   9.00000000E+001   9.16890969E-001   8.31664189E-001   9.06183068E-001
   9.50000000E+001   9.25125667E-001   8.25130777E-001   9.15566581E-001
   1.00000000E+002   9.31856171E-001   8.18695032E-001   9.23392937E-001
   1.05000000E+002   9.37890507E-001   8.12507719E-001   9.30416744E-001
   1.10000000E+002   9.43347775E-001   8.06677461E-001   9.36761850E-001
   1.15000000E+002   9.48229430E-001   8.01276741E-001   9.42442779E-001
   1.20000000E+002   9.52456989E-001   7.96345920E-001   9.47391165E-001
   1.25000000E+002   9.56087433E-001   7.91899165E-001   9.51667329E-001
   1.30000000E+002   9.59811417E-001   7.87930193E-001   9.55942935E-001
   1.35000000E+002   9.63094975E-001   7.84417812E-001   9.59715852E-001
   1.40000000E+002   9.65808368E-001   7.81330915E-001   9.62864552E-001
   1.45000000E+002   9.68462330E-001   7.78632689E-001   9.65893331E-001
   1.50000000E+002   9.70693961E-001   7.76283952E-001   9.68454154E-001
   1.55000000E+002   9.73164616E-001   7.74245537E-001   9.71201993E-001
   1.60000000E+002   9.74790487E-001   7.72479949E-001   9.73079465E-001
   1.65000000E+002   9.76594375E-001   7.70952430E-001   9.75095505E-001
   1.70000000E+002   9.78187270E-001   7.69631465E-001   9.76872986E-001
   1.75000000E+002   9.79762492E-001   7.68488960E-001   9.78606495E-001
   1.80000000E+002   9.81220683E-001   7.67500191E-001   9.80201996E-001
   1.85000000E+002   9.82537437E-001   7.66643608E-001   9.81638090E-001
   1.90000000E+002   9.83439316E-001   7.65900565E-001   9.82646032E-001
   1.95000000E+002   9.84656413E-001   7.65255010E-001   9.83952600E-001
   2.00000000E+002   9.85697287E-001   7.64693177E-001   9.85072030E-001
   2.05000000E+002   9.86589388E-001   7.64203292E-001   9.86033119E-001
   2.10000000E+002   9.87401954E-001   7.63775298E-001   9.86906031E-001
   2.15000000E+002   9.88312265E-001   7.63400610E-001   9.87868512E-001
   2.20000000E+002   9.88973346E-001   7.63071907E-001   9.88576191E-001
   2.25000000E+002   9.89679741E-001   7.62782936E-001   9.89323232E-001
   2.30000000E+002   9.90345291E-001   7.62528357E-001   9.90024614E-001
   2.35000000E+002   9.90972365E-001   7.62303604E-001   9.90683369E-001
   2.40000000E+002   9.91406007E-001   7.62104768E-001   9.91145412E-001
   2.45000000E+002   9.91983923E-001   7.61928497E-001   9.91748108E-001
