# ./jetvheto -in n3lo-fixed-order/H125-LHC13-R04-heft-xmur050-xmuf050-log.fxd -xQ 0.50 -out benchmarks-n3lo-smallR/H125-LHC13-R04-heft-xmur050-xmuf050-xQ050-N3LO+NNLLa.R0-0.5.res -scheme a -order 2 -ptmax 500.01 -fixed_order 3 -small-r -R0 0.5
# process = H    
# collider = pp   
# rts =  13000.000
# M   =    125.000
# muR =     62.500
# muF =     62.500
# Q   =     62.500
# p   =      5.000
# include_c1_squared =   F
# loop_mass  = none
# alphas(MZ) =    0.11800
# alphas(M) =    0.11264
# alphas(muR) =    0.12516
# Rjet =      0.400
# order = NNLL
# pdf name and set = PDF4LHC15_nnlo_mc.LHgrid,    0
# matching scheme = a
# total cross sections [nb] at LO, NLOdiff, NNLOdiff, N3LOdiff =     0.015055    0.019611    0.008998    0.001413
#----------------------------------------------------------------------
# the lines that follow give the jet-veto efficiencies as a function of pt
#         pt            matched eff      resummed eff     fixed-order eff
   2.00000000E+001   4.55331611E-001   4.94216414E-001   4.50065620E-001
   2.50000000E+001   5.41765016E-001   5.73081237E-001   5.35117843E-001
   3.00000000E+001   6.14305841E-001   6.28855698E-001   6.07875407E-001
   3.50000000E+001   6.71707023E-001   6.67815674E-001   6.65471707E-001
   4.00000000E+001   7.16178861E-001   6.94534691E-001   7.10255567E-001
   4.50000000E+001   7.54669530E-001   7.12385181E-001   7.49462038E-001
   5.00000000E+001   7.85338247E-001   7.23940464E-001   7.80889863E-001
   5.50000000E+001   8.11910985E-001   7.31181284E-001   8.08255100E-001
   6.00000000E+001   8.33597229E-001   7.35592819E-001   8.30655804E-001
   6.50000000E+001   8.53679231E-001   7.38228082E-001   8.51359759E-001
   7.00000000E+001   8.69220565E-001   7.39789610E-001   8.67401068E-001
   7.50000000E+001   8.83139322E-001   7.40718595E-001   8.81721105E-001
   8.00000000E+001   8.95736140E-001   7.41279253E-001   8.94630807E-001
   8.50000000E+001   9.06939754E-001   7.41625004E-001   9.06075690E-001
   9.00000000E+001   9.16873231E-001   7.41843982E-001   9.16194285E-001
   9.50000000E+001   9.24839693E-001   7.41986700E-001   9.24302841E-001
   1.00000000E+002   9.32396619E-001   7.42082411E-001   9.31969203E-001
   1.05000000E+002   9.38456727E-001   7.42148375E-001   9.38114001E-001
   1.10000000E+002   9.44056576E-001   7.42194999E-001   9.43779750E-001
   1.15000000E+002   9.49328110E-001   7.42228718E-001   9.49102964E-001
   1.20000000E+002   9.54089657E-001   7.42253609E-001   9.53905269E-001
   1.25000000E+002   9.58020394E-001   7.42272321E-001   9.57868349E-001
   1.30000000E+002   9.61459409E-001   7.42286617E-001   9.61333266E-001
   1.35000000E+002   9.64903202E-001   7.42297697E-001   9.64797911E-001
   1.40000000E+002   9.68022608E-001   7.42306394E-001   9.67934219E-001
   1.45000000E+002   9.70698323E-001   7.42313298E-001   9.70623723E-001
   1.50000000E+002   9.72788691E-001   7.42318837E-001   9.72725389E-001
   1.55000000E+002   9.75181749E-001   7.42323319E-001   9.75127782E-001
   1.60000000E+002   9.77349495E-001   7.42326978E-001   9.77303274E-001
   1.65000000E+002   9.78675258E-001   7.42329988E-001   9.78635491E-001
   1.70000000E+002   9.80402227E-001   7.42332480E-001   9.80367872E-001
   1.75000000E+002   9.82020218E-001   7.42334557E-001   9.81990419E-001
   1.80000000E+002   9.83266478E-001   7.42336299E-001   9.83240537E-001
   1.85000000E+002   9.84406850E-001   7.42337767E-001   9.84384183E-001
   1.90000000E+002   9.85584298E-001   7.42339011E-001   9.85564426E-001
   1.95000000E+002   9.86669939E-001   7.42340070E-001   9.86652461E-001
   2.00000000E+002   9.87639087E-001   7.42340976E-001   9.87623667E-001
   2.05000000E+002   9.88425242E-001   7.42341754E-001   9.88411596E-001
   2.10000000E+002   9.89222692E-001   7.42342425E-001   9.89210583E-001
   2.15000000E+002   9.89843996E-001   7.42343005E-001   9.89833220E-001
   2.20000000E+002   9.90718313E-001   7.42343509E-001   9.90708699E-001
   2.25000000E+002   9.91196504E-001   7.42343949E-001   9.91187907E-001
   2.30000000E+002   9.91776254E-001   7.42344333E-001   9.91768546E-001
   2.35000000E+002   9.92220135E-001   7.42344669E-001   9.92213208E-001
   2.40000000E+002   9.92696782E-001   7.42344966E-001   9.92690544E-001
   2.45000000E+002   9.93248411E-001   7.42345227E-001   9.93242783E-001
