# ./jetvheto -in n3lo-fixed-order/H125-LHC13-R04-mb-0-mt-1725-xmur050-xmuf025-log.fxd -xQ 0.5 -out benchmarks-n3lo-smallR/H125-LHC13-R04-mb-0-mt-1725-xmur050-xmuf025-xQ050-NNLO+NNLLb.R0-0.5.res -scheme b -order 2 -ptmax 500.01 -small-r -fixed_order 2 -loop-mass t -R0 0.5
# process = H    
# collider = pp   
# rts =  13000.000
# M   =    125.000
# muR =     62.500
# muF =     31.250
# Q   =     62.500
# p   =      5.000
# include_c1_squared =   F
# loop_mass  = t   
# alphas(MZ) =    0.11800
# alphas(M) =    0.11264
# alphas(muR) =    0.12516
# Rjet =      0.400
# order = NNLL
# pdf name and set = PDF4LHC15_nnlo_mc.LHgrid,    0
# matching scheme = b
# total cross sections [nb] at LO, NLOdiff, NNLOdiff, N3LOdiff =     0.014513    0.020714    0.009723    0.001827
#----------------------------------------------------------------------
# the lines that follow give the jet-veto efficiencies as a function of pt
#         pt            matched eff      resummed eff     fixed-order eff
   2.00000000E+001   4.10186791E-001   4.80946610E-001   3.17487847E-001
   2.50000000E+001   4.94153290E-001   5.63164743E-001   4.26754407E-001
   3.00000000E+001   5.62218846E-001   6.22147371E-001   5.11966558E-001
   3.50000000E+001   6.18385637E-001   6.63915163E-001   5.80470117E-001
   4.00000000E+001   6.65115615E-001   6.93012573E-001   6.36364792E-001
   4.50000000E+001   7.04393484E-001   7.12820769E-001   6.82611528E-001
   5.00000000E+001   7.37996894E-001   7.25938538E-001   7.21540031E-001
   5.50000000E+001   7.66828501E-001   7.34392618E-001   7.54444177E-001
   6.00000000E+001   7.91932944E-001   7.39721915E-001   7.82634803E-001
   6.50000000E+001   8.13960129E-001   7.43038201E-001   8.06977613E-001
   7.00000000E+001   8.33386248E-001   7.45098481E-001   8.28128874E-001
   7.50000000E+001   8.50367045E-001   7.46390255E-001   8.46387939E-001
   8.00000000E+001   8.65598393E-001   7.47214681E-001   8.62566302E-001
   8.50000000E+001   8.79035045E-001   7.47752948E-001   8.76705809E-001
   9.00000000E+001   8.91051505E-001   7.48113270E-001   8.89246129E-001
   9.50000000E+001   9.01653332E-001   7.48360589E-001   9.00241110E-001
   1.00000000E+002   9.11204562E-001   7.48534429E-001   9.10089763E-001
   1.05000000E+002   9.19786562E-001   7.48659323E-001   9.18898671E-001
   1.10000000E+002   9.27422925E-001   7.48750839E-001   9.26709709E-001
   1.15000000E+002   9.34359582E-001   7.48819090E-001   9.33781944E-001
   1.20000000E+002   9.40591057E-001   7.48870797E-001   9.40119549E-001
   1.25000000E+002   9.46121427E-001   7.48910524E-001   9.45733708E-001
   1.30000000E+002   9.51169868E-001   7.48941431E-001   9.50848857E-001
   1.35000000E+002   9.55720147E-001   7.48965749E-001   9.55452646E-001
   1.40000000E+002   9.59853831E-001   7.48985079E-001   9.59629530E-001
   1.45000000E+002   9.63643551E-001   7.49000586E-001   9.63454390E-001
   1.50000000E+002   9.67036500E-001   7.49013133E-001   9.66876104E-001
   1.55000000E+002   9.70123461E-001   7.49023363E-001   9.69986758E-001
   1.60000000E+002   9.72955086E-001   7.49031764E-001   9.72838016E-001
   1.65000000E+002   9.75531903E-001   7.49038709E-001   9.75431192E-001
   1.70000000E+002   9.77847502E-001   7.49044486E-001   9.77760487E-001
   1.75000000E+002   9.79965092E-001   7.49049318E-001   9.79889608E-001
   1.80000000E+002   9.81903509E-001   7.49053381E-001   9.81837773E-001
   1.85000000E+002   9.83657404E-001   7.49056816E-001   9.83599946E-001
   1.90000000E+002   9.85283047E-001   7.49059733E-001   9.85232651E-001
   1.95000000E+002   9.86780491E-001   7.49062222E-001   9.86736143E-001
   2.00000000E+002   9.88125123E-001   7.49064353E-001   9.88085975E-001
   2.05000000E+002   9.89377331E-001   7.49066186E-001   9.89342669E-001
   2.10000000E+002   9.90532772E-001   7.49067769E-001   9.90501995E-001
   2.15000000E+002   9.91535624E-001   7.49069140E-001   9.91508223E-001
   2.20000000E+002   9.92485843E-001   7.49070332E-001   9.92461383E-001
   2.25000000E+002   9.93368625E-001   7.49071371E-001   9.93346737E-001
   2.30000000E+002   9.94152069E-001   7.49072280E-001   9.94132434E-001
   2.35000000E+002   9.94867794E-001   7.49073078E-001   9.94850142E-001
   2.40000000E+002   9.95512646E-001   7.49073780E-001   9.95496740E-001
   2.45000000E+002   9.96120798E-001   7.49074399E-001   9.96106437E-001
