# ./jetvheto -in n3lo-fixed-order/H125-LHC13-R04-mb-0-mt-1725-xmur100-xmuf050-log.fxd -xQ 0.25 -out benchmarks-n3lo-smallR/H125-LHC13-R04-mb-0-mt-1725-xmur100-xmuf050-xQ025-NNLO+NNLLb.R0-1.5.res -scheme b -order 2 -ptmax 500.01 -small-r -fixed_order 2 -loop-mass t -R0 1.5
# process = H    
# collider = pp   
# rts =  13000.000
# M   =    125.000
# muR =    125.000
# muF =     62.500
# Q   =     31.250
# p   =      5.000
# include_c1_squared =   F
# loop_mass  = t   
# alphas(MZ) =    0.11800
# alphas(M) =    0.11264
# alphas(muR) =    0.11264
# Rjet =      0.400
# order = NNLL
# pdf name and set = PDF4LHC15_nnlo_mc.LHgrid,    0
# matching scheme = b
# total cross sections [nb] at LO, NLOdiff, NNLOdiff, N3LOdiff =     0.012997    0.017347    0.010424    0.004163
#----------------------------------------------------------------------
# the lines that follow give the jet-veto efficiencies as a function of pt
#         pt            matched eff      resummed eff     fixed-order eff
   2.00000000E+001   3.90136040E-001   5.33623111E-001   3.35464478E-001
   2.50000000E+001   4.72598906E-001   6.07834139E-001   4.44581634E-001
   3.00000000E+001   5.42358706E-001   6.51798313E-001   5.28420724E-001
   3.50000000E+001   6.01873865E-001   6.75849762E-001   5.94978134E-001
   4.00000000E+001   6.52362036E-001   6.88525356E-001   6.48877858E-001
   4.50000000E+001   6.95125158E-001   6.95236770E-001   6.93298464E-001
   5.00000000E+001   7.31766688E-001   6.98896482E-001   7.30768118E-001
   5.50000000E+001   7.62579421E-001   7.00971339E-001   7.62009523E-001
   6.00000000E+001   7.89189018E-001   7.02195789E-001   7.88850765E-001
   6.50000000E+001   8.12223368E-001   7.02946153E-001   8.12015374E-001
   7.00000000E+001   8.32203702E-001   7.03421976E-001   8.32071711E-001
   7.50000000E+001   8.49540203E-001   7.03733057E-001   8.49453901E-001
   8.00000000E+001   8.64794945E-001   7.03942030E-001   8.64737072E-001
   8.50000000E+001   8.78268006E-001   7.04085839E-001   8.78228289E-001
   9.00000000E+001   8.90159724E-001   7.04186958E-001   8.90131888E-001
   9.50000000E+001   9.00620522E-001   7.04259444E-001   9.00600609E-001
   1.00000000E+002   9.10038487E-001   7.04312313E-001   9.10024002E-001
   1.05000000E+002   9.18305561E-001   7.04351483E-001   9.18294838E-001
   1.10000000E+002   9.25709153E-001   7.04380919E-001   9.25701100E-001
   1.15000000E+002   9.32375747E-001   7.04403328E-001   9.32369614E-001
   1.20000000E+002   9.38388092E-001   7.04420589E-001   9.38383362E-001
   1.25000000E+002   9.43861021E-001   7.04434032E-001   9.43857332E-001
   1.30000000E+002   9.48713454E-001   7.04444605E-001   9.48710541E-001
   1.35000000E+002   9.53095268E-001   7.04452998E-001   9.53092945E-001
   1.40000000E+002   9.57106589E-001   7.04459718E-001   9.57104719E-001
   1.45000000E+002   9.60770083E-001   7.04465141E-001   9.60768564E-001
   1.50000000E+002   9.64124753E-001   7.04469550E-001   9.64123509E-001
   1.55000000E+002   9.67148664E-001   7.04473160E-001   9.67147638E-001
   1.60000000E+002   9.69904295E-001   7.04476134E-001   9.69903441E-001
   1.65000000E+002   9.72404156E-001   7.04478600E-001   9.72403442E-001
   1.70000000E+002   9.74704058E-001   7.04480655E-001   9.74703456E-001
   1.75000000E+002   9.76789956E-001   7.04482378E-001   9.76789445E-001
   1.80000000E+002   9.78683187E-001   7.04483829E-001   9.78682751E-001
   1.85000000E+002   9.80439100E-001   7.04485057E-001   9.80438727E-001
   1.90000000E+002   9.82044991E-001   7.04486102E-001   9.82044669E-001
   1.95000000E+002   9.83517934E-001   7.04486994E-001   9.83517655E-001
   2.00000000E+002   9.84869588E-001   7.04487758E-001   9.84869345E-001
   2.05000000E+002   9.86107405E-001   7.04488416E-001   9.86107193E-001
   2.10000000E+002   9.87224892E-001   7.04488985E-001   9.87224706E-001
   2.15000000E+002   9.88279389E-001   7.04489478E-001   9.88279226E-001
   2.20000000E+002   9.89244902E-001   7.04489906E-001   9.89244758E-001
   2.25000000E+002   9.90113863E-001   7.04490280E-001   9.90113735E-001
   2.30000000E+002   9.90954182E-001   7.04490607E-001   9.90954068E-001
   2.35000000E+002   9.91687729E-001   7.04490895E-001   9.91687628E-001
   2.40000000E+002   9.92381978E-001   7.04491147E-001   9.92381887E-001
   2.45000000E+002   9.93017436E-001   7.04491370E-001   9.93017355E-001
