# ./jetvheto -in n3lo-fixed-order/H125-LHC13-R04-heft-xmur050-xmuf050-log.fxd -xQ 1.00 -out benchmarks-n3lo-smallR/H125-LHC13-R04-heft-xmur050-xmuf050-xQ100-N3LO+NNLLa.R0-0.5.res -scheme a -order 2 -ptmax 500.01 -fixed_order 3 -small-r -R0 0.5
# process = H    
# collider = pp   
# rts =  13000.000
# M   =    125.000
# muR =     62.500
# muF =     62.500
# Q   =    125.000
# p   =      5.000
# include_c1_squared =   F
# loop_mass  = none
# alphas(MZ) =    0.11800
# alphas(M) =    0.11264
# alphas(muR) =    0.12516
# Rjet =      0.400
# order = NNLL
# pdf name and set = PDF4LHC15_nnlo_mc.LHgrid,    0
# matching scheme = a
# total cross sections [nb] at LO, NLOdiff, NNLOdiff, N3LOdiff =     0.015055    0.019611    0.008998    0.001413
#----------------------------------------------------------------------
# the lines that follow give the jet-veto efficiencies as a function of pt
#         pt            matched eff      resummed eff     fixed-order eff
   2.00000000E+001   4.83113782E-001   5.92595711E-001   4.50065620E-001
   2.50000000E+001   5.68594956E-001   6.76819422E-001   5.35117843E-001
   3.00000000E+001   6.40371142E-001   7.34924429E-001   6.07875407E-001
   3.50000000E+001   6.96772103E-001   7.74611820E-001   6.65471707E-001
   4.00000000E+001   7.39961862E-001   8.01207565E-001   7.10255567E-001
   4.50000000E+001   7.77454929E-001   8.18336639E-001   7.49462038E-001
   5.00000000E+001   8.06923249E-001   8.28536139E-001   7.80889863E-001
   5.50000000E+001   8.32362064E-001   8.33632052E-001   8.08255100E-001
   6.00000000E+001   8.52738214E-001   8.34955119E-001   8.30655804E-001
   6.50000000E+001   8.71643532E-001   8.33502594E-001   8.51359759E-001
   7.00000000E+001   8.85727503E-001   8.30039156E-001   8.67401068E-001
   7.50000000E+001   8.98250268E-001   8.25154059E-001   8.81721105E-001
   8.00000000E+001   9.09514277E-001   8.19312043E-001   8.94630807E-001
   8.50000000E+001   9.19427352E-001   8.12886249E-001   9.06075690E-001
   9.00000000E+001   9.28121077E-001   8.06177035E-001   9.16194285E-001
   9.50000000E+001   9.34843112E-001   7.99423689E-001   9.24302841E-001
   1.00000000E+002   9.41284571E-001   7.92815012E-001   9.31969203E-001
   1.05000000E+002   9.46272442E-001   7.86493723E-001   9.38114001E-001
   1.10000000E+002   9.50914059E-001   7.80561587E-001   9.43779750E-001
   1.15000000E+002   9.55340849E-001   7.75084899E-001   9.49102964E-001
   1.20000000E+002   9.59348225E-001   7.70098116E-001   9.53905269E-001
   1.25000000E+002   9.62595562E-001   7.65610576E-001   9.57868349E-001
   1.30000000E+002   9.65432073E-001   7.61612266E-001   9.61333266E-001
   1.35000000E+002   9.68360990E-001   7.58079058E-001   9.64797911E-001
   1.40000000E+002   9.71031472E-001   7.54977583E-001   9.67934219E-001
   1.45000000E+002   9.73314194E-001   7.52269314E-001   9.70623723E-001
   1.50000000E+002   9.75057301E-001   7.49913767E-001   9.72725389E-001
   1.55000000E+002   9.77161099E-001   7.47870833E-001   9.75127782E-001
   1.60000000E+002   9.79078232E-001   7.46102358E-001   9.77303274E-001
   1.65000000E+002   9.80178763E-001   7.44573046E-001   9.78635491E-001
   1.70000000E+002   9.81718755E-001   7.43251043E-001   9.80367872E-001
   1.75000000E+002   9.83175649E-001   7.42108040E-001   9.81990419E-001
   1.80000000E+002   9.84280543E-001   7.41119133E-001   9.83240537E-001
   1.85000000E+002   9.85298851E-001   7.40262649E-001   9.84384183E-001
   1.90000000E+002   9.86371706E-001   7.39519853E-001   9.85564426E-001
   1.95000000E+002   9.87366659E-001   7.38874633E-001   9.86652461E-001
   2.00000000E+002   9.88256777E-001   7.38313183E-001   9.87623667E-001
   2.05000000E+002   9.88973528E-001   7.37823700E-001   9.88411596E-001
   2.10000000E+002   9.89710863E-001   7.37396107E-001   9.89210583E-001
   2.15000000E+002   9.90279127E-001   7.37021812E-001   9.89833220E-001
   2.20000000E+002   9.91108125E-001   7.36693482E-001   9.90708699E-001
   2.25000000E+002   9.91545394E-001   7.36404862E-001   9.91187907E-001
   2.30000000E+002   9.92089523E-001   7.36150611E-001   9.91768546E-001
   2.35000000E+002   9.92501806E-001   7.35926161E-001   9.92213208E-001
   2.40000000E+002   9.92950692E-001   7.35727604E-001   9.92690544E-001
   2.45000000E+002   9.93477976E-001   7.35551589E-001   9.93242783E-001
