# ./jetvheto -in n3lo-fixed-order/H125-LHC13-R04-mb-475-mt-1725-xmur050-xmuf050-log.fxd -xQ 1.0 -out benchmarks-n3lo-smallR/H125-LHC13-R04-mb-475-mt-1725-xmur050-xmuf050-xQ100-N3LO+NNLLb.res -scheme b -order 2 -ptmax 500.01 -fixed_order 3 -loop-mass t+b
# process = H    
# collider = pp   
# rts =  13000.000
# M   =    125.000
# muR =     62.500
# muF =     62.500
# Q   =    125.000
# p   =      5.000
# include_c1_squared =   F
# loop_mass  = t+b 
# alphas(MZ) =    0.11800
# alphas(M) =    0.11264
# alphas(muR) =    0.12516
# Rjet =      0.400
# order = NNLL
# pdf name and set = PDF4LHC15_nnlo_mc.LHgrid,    0
# matching scheme = b
# total cross sections [nb] at LO, NLOdiff, NNLOdiff, N3LOdiff =     0.014147    0.020254    0.008998    0.001413
#----------------------------------------------------------------------
# the lines that follow give the jet-veto efficiencies as a function of pt
#         pt            matched eff      resummed eff     fixed-order eff
   2.00000000E+001   4.61753190E-001   5.65925301E-001   4.22880362E-001
   2.50000000E+001   5.47611859E-001   6.46803184E-001   5.10871357E-001
   3.00000000E+001   6.20500510E-001   7.02642824E-001   5.86554172E-001
   3.50000000E+001   6.78463943E-001   7.40814789E-001   6.46974526E-001
   4.00000000E+001   7.23040528E-001   7.66422294E-001   6.94053894E-001
   4.50000000E+001   7.62215919E-001   7.82941078E-001   7.35572065E-001
   5.00000000E+001   7.93237405E-001   7.92804834E-001   7.68984657E-001
   5.50000000E+001   8.20124611E-001   7.97765641E-001   7.98072300E-001
   6.00000000E+001   8.41931905E-001   7.99100661E-001   8.22057983E-001
   6.50000000E+001   8.62181358E-001   7.97767138E-001   8.44160448E-001
   7.00000000E+001   8.77470356E-001   7.94499137E-001   8.61397413E-001
   7.50000000E+001   8.91130980E-001   7.89862378E-001   8.76789719E-001
   8.00000000E+001   9.03494017E-001   7.84303065E-001   8.90691953E-001
   8.50000000E+001   9.14453985E-001   7.78179472E-001   9.03050366E-001
   9.00000000E+001   9.24024476E-001   7.71780006E-001   9.13896477E-001
   9.50000000E+001   9.31535765E-001   7.65334464E-001   9.22639584E-001
   1.00000000E+002   9.38753427E-001   7.59024197E-001   9.30924075E-001
   1.05000000E+002   9.44444219E-001   7.52986344E-001   9.37618957E-001
   1.10000000E+002   9.49668337E-001   7.47318761E-001   9.43720915E-001
   1.15000000E+002   9.54690412E-001   7.42085283E-001   9.49502090E-001
   1.20000000E+002   9.59198250E-001   7.37319212E-001   9.54678868E-001
   1.25000000E+002   9.62920904E-001   7.33029753E-001   9.59003817E-001
   1.30000000E+002   9.66154211E-001   7.29207543E-001   9.62764111E-001
   1.35000000E+002   9.69435151E-001   7.25829673E-001   9.66490458E-001
   1.40000000E+002   9.72438978E-001   7.22864356E-001   9.69880698E-001
   1.45000000E+002   9.75028147E-001   7.20274840E-001   9.72807360E-001
   1.50000000E+002   9.77025163E-001   7.18022475E-001   9.75102905E-001
   1.55000000E+002   9.79384914E-001   7.16068957E-001   9.77708768E-001
   1.60000000E+002   9.81501969E-001   7.14377831E-001   9.80038790E-001
   1.65000000E+002   9.82761004E-001   7.12915369E-001   9.81490611E-001
   1.70000000E+002   9.84436215E-001   7.11651125E-001   9.83324317E-001
   1.75000000E+002   9.86024846E-001   7.10558039E-001   9.85049293E-001
   1.80000000E+002   9.87223154E-001   7.09612305E-001   9.86367565E-001
   1.85000000E+002   9.88336089E-001   7.08793202E-001   9.87583960E-001
   1.90000000E+002   9.89483619E-001   7.08082816E-001   9.88819869E-001
   1.95000000E+002   9.90545409E-001   7.07465743E-001   9.89958231E-001
   2.00000000E+002   9.91481850E-001   7.06928781E-001   9.90961409E-001
   2.05000000E+002   9.92224473E-001   7.06460643E-001   9.91762726E-001
   2.10000000E+002   9.92971894E-001   7.06051694E-001   9.92560879E-001
   2.15000000E+002   9.93554348E-001   7.05693717E-001   9.93188169E-001
   2.20000000E+002   9.94400542E-001   7.05379700E-001   9.94072436E-001
   2.25000000E+002   9.94827573E-001   7.05103660E-001   9.94534058E-001
   2.30000000E+002   9.95358187E-001   7.04860490E-001   9.95094697E-001
   2.35000000E+002   9.95749355E-001   7.04645822E-001   9.95512527E-001
   2.40000000E+002   9.96174075E-001   7.04455918E-001   9.95960635E-001
   2.45000000E+002   9.96667540E-001   7.04287572E-001   9.96474558E-001
