# ./jetvheto -in n3lo-fixed-order/H125-LHC13-R04-heft-xmur100-xmuf100-log.fxd -xQ 1.00 -out benchmarks-n3lo-smallR/H125-LHC13-R04-heft-xmur100-xmuf100-xQ100-NNLO+NNLLa.R0-0.5.res -scheme a -order 2 -ptmax 500.01 -fixed_order 2 -small-r -R0 0.5
# process = H    
# collider = pp   
# rts =  13000.000
# M   =    125.000
# muR =    125.000
# muF =    125.000
# Q   =    125.000
# p   =      5.000
# include_c1_squared =   F
# loop_mass  = none
# alphas(MZ) =    0.11800
# alphas(M) =    0.11264
# alphas(muR) =    0.11264
# Rjet =      0.400
# order = NNLL
# pdf name and set = PDF4LHC15_nnlo_mc.LHgrid,    0
# matching scheme = a
# total cross sections [nb] at LO, NLOdiff, NNLOdiff, N3LOdiff =     0.012945    0.016716    0.010146    0.003834
#----------------------------------------------------------------------
# the lines that follow give the jet-veto efficiencies as a function of pt
#         pt            matched eff      resummed eff     fixed-order eff
   2.00000000E+001   5.19665757E-001   5.77431012E-001   5.03121755E-001
   2.50000000E+001   6.13880900E-001   6.67650620E-001   5.84489186E-001
   3.00000000E+001   6.86998648E-001   7.31320083E-001   6.47024325E-001
   3.50000000E+001   7.44189767E-001   7.75917817E-001   6.96432698E-001
   4.00000000E+001   7.89511581E-001   8.06712170E-001   7.36537087E-001
   4.50000000E+001   8.25504460E-001   8.27385224E-001   7.69498888E-001
   5.00000000E+001   8.54326843E-001   8.40563822E-001   7.97057559E-001
   5.50000000E+001   8.77428017E-001   8.48160694E-001   8.20296043E-001
   6.00000000E+001   8.96099099E-001   8.51581511E-001   8.40179538E-001
   6.50000000E+001   9.11192288E-001   8.51880639E-001   8.57311575E-001
   7.00000000E+001   9.23288320E-001   8.49870957E-001   8.72069843E-001
   7.50000000E+001   9.33079717E-001   8.46187757E-001   8.84956099E-001
   8.00000000E+001   9.40982635E-001   8.41337528E-001   8.96237121E-001
   8.50000000E+001   9.47307742E-001   8.35727751E-001   9.06102675E-001
   9.00000000E+001   9.52505244E-001   8.29688262E-001   9.14880120E-001
   9.50000000E+001   9.56685583E-001   8.23482342E-001   9.22604114E-001
   1.00000000E+002   9.60124341E-001   8.17318671E-001   9.29473021E-001
   1.05000000E+002   9.62994100E-001   8.11357236E-001   9.35603161E-001
   1.10000000E+002   9.65391381E-001   8.05714387E-001   9.41053390E-001
   1.15000000E+002   9.67499785E-001   8.00469092E-001   9.45975962E-001
   1.20000000E+002   9.69339435E-001   7.95667157E-001   9.50380922E-001
   1.25000000E+002   9.71001452E-001   7.91327312E-001   9.54354081E-001
   1.30000000E+002   9.72517460E-001   7.87447089E-001   9.57933958E-001
   1.35000000E+002   9.73951718E-001   7.84008468E-001   9.61195880E-001
   1.40000000E+002   9.75256001E-001   7.80982976E-001   9.64110237E-001
   1.45000000E+002   9.76548380E-001   7.78335972E-001   9.66811003E-001
   1.50000000E+002   9.77724289E-001   7.76030063E-001   9.69216654E-001
   1.55000000E+002   9.78863722E-001   7.74027555E-001   9.71425199E-001
   1.60000000E+002   9.79969864E-001   7.72292154E-001   9.73459094E-001
   1.65000000E+002   9.81007946E-001   7.70790093E-001   9.75301855E-001
   1.70000000E+002   9.82019572E-001   7.69490664E-001   9.77010596E-001
   1.75000000E+002   9.82958855E-001   7.68366435E-001   9.78554343E-001
   1.80000000E+002   9.83871204E-001   7.67393226E-001   9.79990696E-001
   1.85000000E+002   9.84721980E-001   7.66549935E-001   9.81296426E-001
   1.90000000E+002   9.85534174E-001   7.65818282E-001   9.82503927E-001
   1.95000000E+002   9.86324601E-001   7.65182518E-001   9.83638287E-001
   2.00000000E+002   9.87061603E-001   7.64629129E-001   9.84675207E-001
   2.05000000E+002   9.87763602E-001   7.64146549E-001   9.85639085E-001
   2.10000000E+002   9.88418355E-001   7.63724891E-001   9.86523019E-001
   2.15000000E+002   9.89025352E-001   7.63355718E-001   9.87330981E-001
   2.20000000E+002   9.89610115E-001   7.63031827E-001   9.88092219E-001
   2.25000000E+002   9.90157525E-001   7.62747066E-001   9.88794983E-001
   2.30000000E+002   9.90676585E-001   7.62496181E-001   9.89451061E-001
   2.35000000E+002   9.91180263E-001   7.62274678E-001   9.90075806E-001
   2.40000000E+002   9.91638052E-001   7.62078708E-001   9.90640855E-001
   2.45000000E+002   9.92076992E-001   7.61904970E-001   9.91174955E-001
