# ./jetvheto -in n3lo-fixed-order/H125-LHC13-R04-mb-0-mt-1725-xmur050-xmuf050-log.fxd -xQ 0.25 -out benchmarks-n3lo-smallR/H125-LHC13-R04-mb-0-mt-1725-xmur050-xmuf050-xQ025-N3LO+NNLLa.R0-1.5.res -scheme a -order 2 -ptmax 500.01 -small-r -fixed_order 3 -loop-mass t -R0 1.5
# process = H    
# collider = pp   
# rts =  13000.000
# M   =    125.000
# muR =     62.500
# muF =     62.500
# Q   =     31.250
# p   =      5.000
# include_c1_squared =   F
# loop_mass  = t   
# alphas(MZ) =    0.11800
# alphas(M) =    0.11264
# alphas(muR) =    0.12516
# Rjet =      0.400
# order = NNLL
# pdf name and set = PDF4LHC15_nnlo_mc.LHgrid,    0
# matching scheme = a
# total cross sections [nb] at LO, NLOdiff, NNLOdiff, N3LOdiff =     0.015885    0.020561    0.008998    0.001413
#----------------------------------------------------------------------
# the lines that follow give the jet-veto efficiencies as a function of pt
#         pt            matched eff      resummed eff     fixed-order eff
   2.00000000E+001   4.58566110E-001   4.96921280E-001   4.58478332E-001
   2.50000000E+001   5.43964791E-001   5.65963735E-001   5.43713081E-001
   3.00000000E+001   6.16001718E-001   6.06850462E-001   6.16066731E-001
   3.50000000E+001   6.73410149E-001   6.29212787E-001   6.73487735E-001
   4.00000000E+001   7.18054432E-001   6.40996412E-001   7.18067162E-001
   4.50000000E+001   7.56911486E-001   6.47235016E-001   7.56928051E-001
   5.00000000E+001   7.88279778E-001   6.50636744E-001   7.88284226E-001
   5.50000000E+001   8.15207226E-001   6.52565285E-001   8.15210520E-001
   6.00000000E+001   8.37433345E-001   6.53703370E-001   8.37433297E-001
   6.50000000E+001   8.57920022E-001   6.54400802E-001   8.57921417E-001
   7.00000000E+001   8.73779580E-001   6.54843056E-001   8.73778810E-001
   7.50000000E+001   8.87925925E-001   6.55132191E-001   8.87924776E-001
   8.00000000E+001   9.00671954E-001   6.55326419E-001   9.00670973E-001
   8.50000000E+001   9.11970776E-001   6.55460082E-001   9.11969998E-001
   9.00000000E+001   9.21930326E-001   6.55554066E-001   9.21929710E-001
   9.50000000E+001   9.29908031E-001   6.55621438E-001   9.29907319E-001
   1.00000000E+002   9.37506653E-001   6.55670577E-001   9.37506036E-001
   1.05000000E+002   9.43544124E-001   6.55706983E-001   9.43543485E-001
   1.10000000E+002   9.49086480E-001   6.55734342E-001   9.49085884E-001
   1.15000000E+002   9.54323515E-001   6.55755169E-001   9.54323006E-001
   1.20000000E+002   9.59040201E-001   6.55771213E-001   9.59039767E-001
   1.25000000E+002   9.62973276E-001   6.55783707E-001   9.62972878E-001
   1.30000000E+002   9.66366832E-001   6.55793534E-001   9.66366470E-001
   1.35000000E+002   9.69731235E-001   6.55801335E-001   9.69730923E-001
   1.40000000E+002   9.72797305E-001   6.55807580E-001   9.72797037E-001
   1.45000000E+002   9.75465844E-001   6.55812621E-001   9.75465608E-001
   1.50000000E+002   9.77552518E-001   6.55816719E-001   9.77552300E-001
   1.55000000E+002   9.79914220E-001   6.55820074E-001   9.79914033E-001
   1.60000000E+002   9.82029511E-001   6.55822838E-001   9.82029350E-001
   1.65000000E+002   9.83335151E-001   6.55825130E-001   9.83335000E-001
   1.70000000E+002   9.85013484E-001   6.55827040E-001   9.85013351E-001
   1.75000000E+002   9.86560455E-001   6.55828642E-001   9.86560338E-001
   1.80000000E+002   9.87746667E-001   6.55829990E-001   9.87746562E-001
   1.85000000E+002   9.88836710E-001   6.55831132E-001   9.88836616E-001
   1.90000000E+002   9.89952252E-001   6.55832103E-001   9.89952168E-001
   1.95000000E+002   9.90982146E-001   6.55832932E-001   9.90982071E-001
   2.00000000E+002   9.91892642E-001   6.55833642E-001   9.91892575E-001
   2.05000000E+002   9.92611042E-001   6.55834254E-001   9.92610981E-001
   2.10000000E+002   9.93331715E-001   6.55834782E-001   9.93331661E-001
   2.15000000E+002   9.93892100E-001   6.55835240E-001   9.93892050E-001
   2.20000000E+002   9.94689120E-001   6.55835639E-001   9.94689076E-001
   2.25000000E+002   9.95103480E-001   6.55835986E-001   9.95103439E-001
   2.30000000E+002   9.95613139E-001   6.55836290E-001   9.95613102E-001
   2.35000000E+002   9.95984391E-001   6.55836557E-001   9.95984357E-001
   2.40000000E+002   9.96389043E-001   6.55836792E-001   9.96389013E-001
   2.45000000E+002   9.96862060E-001   6.55837000E-001   9.96862033E-001
