# ./jetvheto -in n3lo-fixed-order/H125-LHC13-R04-mb-475-mt-1725-xmur025-xmuf025-log.fxd -xQ 0.25 -out benchmarks-n3lo-smallR/H125-LHC13-R04-mb-475-mt-1725-xmur025-xmuf025-xQ025-NNLO+NNLLb.R0-1.0.res -scheme b -order 2 -ptmax 500.01 -fixed_order 2 -small-r -loop-mass t+b -R0 1.0
# process = H    
# collider = pp   
# rts =  13000.000
# M   =    125.000
# muR =     31.250
# muF =     31.250
# Q   =     31.250
# p   =      5.000
# include_c1_squared =   F
# loop_mass  = t+b 
# alphas(MZ) =    0.11800
# alphas(M) =    0.11264
# alphas(muR) =    0.14091
# Rjet =      0.400
# order = NNLL
# pdf name and set = PDF4LHC15_nnlo_mc.LHgrid,    0
# matching scheme = b
# total cross sections [nb] at LO, NLOdiff, NNLOdiff, N3LOdiff =     0.016156    0.025248    0.006043   -0.002471
#----------------------------------------------------------------------
# the lines that follow give the jet-veto efficiencies as a function of pt
#         pt            matched eff      resummed eff     fixed-order eff
   2.00000000E+001   3.72161985E-001   4.21002164E-001   3.28893509E-001
   2.50000000E+001   4.55291075E-001   4.80654658E-001   4.30904941E-001
   3.00000000E+001   5.26122463E-001   5.16065627E-001   5.12833977E-001
   3.50000000E+001   5.87380155E-001   5.35463764E-001   5.80181023E-001
   4.00000000E+001   6.39889606E-001   5.45695633E-001   6.35905108E-001
   4.50000000E+001   6.84958778E-001   5.51116277E-001   6.82675043E-001
   5.00000000E+001   7.23523021E-001   5.54073120E-001   7.22156956E-001
   5.50000000E+001   7.56564268E-001   5.55749811E-001   7.55714207E-001
   6.00000000E+001   7.85099898E-001   5.56739401E-001   7.84550979E-001
   6.50000000E+001   8.09818252E-001   5.57345881E-001   8.09451630E-001
   7.00000000E+001   8.31474769E-001   5.57730481E-001   8.31222556E-001
   7.50000000E+001   8.50065534E-001   5.57981930E-001   8.49887242E-001
   8.00000000E+001   8.66593190E-001   5.58150847E-001   8.66464336E-001
   8.50000000E+001   8.81158554E-001   5.58267092E-001   8.81063473E-001
   9.00000000E+001   8.93958575E-001   5.58348831E-001   8.93887126E-001
   9.50000000E+001   9.05129187E-001   5.58407425E-001   9.05074588E-001
   1.00000000E+002   9.15072943E-001   5.58450162E-001   9.15030625E-001
   1.05000000E+002   9.23989300E-001   5.58481825E-001   9.23956070E-001
   1.10000000E+002   9.31882951E-001   5.58505619E-001   9.31856548E-001
   1.15000000E+002   9.38990909E-001   5.58523733E-001   9.38969708E-001
   1.20000000E+002   9.45362257E-001   5.58537687E-001   9.45345060E-001
   1.25000000E+002   9.50992400E-001   5.58548553E-001   9.50978318E-001
   1.30000000E+002   9.56096206E-001   5.58557100E-001   9.56084587E-001
   1.35000000E+002   9.60676096E-001   5.58563884E-001   9.60666440E-001
   1.40000000E+002   9.64768054E-001   5.58569317E-001   9.64759970E-001
   1.45000000E+002   9.68541845E-001   5.58573701E-001   9.68535035E-001
   1.50000000E+002   9.71898003E-001   5.58577265E-001   9.71892230E-001
   1.55000000E+002   9.74932927E-001   5.58580183E-001   9.74928007E-001
   1.60000000E+002   9.77704066E-001   5.58582587E-001   9.77699851E-001
   1.65000000E+002   9.80204166E-001   5.58584580E-001   9.80200538E-001
   1.70000000E+002   9.82441254E-001   5.58586241E-001   9.82438117E-001
   1.75000000E+002   9.84478766E-001   5.58587634E-001   9.84476043E-001
   1.80000000E+002   9.86311427E-001   5.58588807E-001   9.86309053E-001
   1.85000000E+002   9.87953443E-001   5.58589800E-001   9.87951365E-001
   1.90000000E+002   9.89480434E-001   5.58590644E-001   9.89478609E-001
   1.95000000E+002   9.90874068E-001   5.58591365E-001   9.90872460E-001
   2.00000000E+002   9.92120699E-001   5.58591983E-001   9.92119277E-001
   2.05000000E+002   9.93274549E-001   5.58592515E-001   9.93273289E-001
   2.10000000E+002   9.94326419E-001   5.58592975E-001   9.94325298E-001
   2.15000000E+002   9.95233633E-001   5.58593373E-001   9.95232634E-001
   2.20000000E+002   9.96096554E-001   5.58593720E-001   9.96095662E-001
   2.25000000E+002   9.96873686E-001   5.58594022E-001   9.96872886E-001
   2.30000000E+002   9.97557542E-001   5.58594286E-001   9.97556823E-001
   2.35000000E+002   9.98195069E-001   5.58594519E-001   9.98194422E-001
   2.40000000E+002   9.98752398E-001   5.58594723E-001   9.98751815E-001
   2.45000000E+002   9.99256391E-001   5.58594903E-001   9.99255864E-001
