# ./jetvheto -in n3lo-fixed-order/H125-LHC13-R04-mb-0-mt-1725-xmur025-xmuf025-log.fxd -xQ 0.25 -out benchmarks-n3lo-smallR/H125-LHC13-R04-mb-0-mt-1725-xmur025-xmuf025-xQ025-N3LO+NNLLa.R0-1.0.res -scheme a -order 2 -ptmax 500.01 -small-r -fixed_order 3 -loop-mass t -R0 1.0
# process = H    
# collider = pp   
# rts =  13000.000
# M   =    125.000
# muR =     31.250
# muF =     31.250
# Q   =     31.250
# p   =      5.000
# include_c1_squared =   F
# loop_mass  = t   
# alphas(MZ) =    0.11800
# alphas(M) =    0.11264
# alphas(muR) =    0.14091
# Rjet =      0.400
# order = NNLL
# pdf name and set = PDF4LHC15_nnlo_mc.LHgrid,    0
# matching scheme = a
# total cross sections [nb] at LO, NLOdiff, NNLOdiff, N3LOdiff =     0.018140    0.025356    0.006043   -0.002471
#----------------------------------------------------------------------
# the lines that follow give the jet-veto efficiencies as a function of pt
#         pt            matched eff      resummed eff     fixed-order eff
   2.00000000E+001   4.60654217E-001   4.45267489E-001   4.60281449E-001
   2.50000000E+001   5.51380475E-001   5.08371496E-001   5.50385931E-001
   3.00000000E+001   6.22228988E-001   5.45833071E-001   6.21139730E-001
   3.50000000E+001   6.78521193E-001   5.66355192E-001   6.77588964E-001
   4.00000000E+001   7.25206784E-001   5.77180148E-001   7.24527077E-001
   4.50000000E+001   7.64592326E-001   5.82915065E-001   7.64122223E-001
   5.00000000E+001   7.97164596E-001   5.86043360E-001   7.96835644E-001
   5.50000000E+001   8.26053588E-001   5.87817279E-001   8.25828649E-001
   6.00000000E+001   8.49296793E-001   5.88864257E-001   8.49134989E-001
   6.50000000E+001   8.66974315E-001   5.89505908E-001   8.66851489E-001
   7.00000000E+001   8.84406580E-001   5.89912812E-001   8.84316376E-001
   7.50000000E+001   8.99139523E-001   5.90178844E-001   8.99072184E-001
   8.00000000E+001   9.10827846E-001   5.90357557E-001   9.10775817E-001
   8.50000000E+001   9.21901207E-001   5.90480544E-001   9.21861220E-001
   9.00000000E+001   9.31560195E-001   5.90567023E-001   9.31529078E-001
   9.50000000E+001   9.37773267E-001   5.90629015E-001   9.37748099E-001
   1.00000000E+002   9.45896309E-001   5.90674230E-001   9.45876515E-001
   1.05000000E+002   9.51406112E-001   5.90707730E-001   9.51390040E-001
   1.10000000E+002   9.57674115E-001   5.90732904E-001   9.57661210E-001
   1.15000000E+002   9.62877259E-001   5.90752069E-001   9.62866750E-001
   1.20000000E+002   9.66554765E-001   5.90766832E-001   9.66546049E-001
   1.25000000E+002   9.69624856E-001   5.90778328E-001   9.69617581E-001
   1.30000000E+002   9.73188231E-001   5.90787370E-001   9.73182178E-001
   1.35000000E+002   9.75901561E-001   5.90794549E-001   9.75896468E-001
   1.40000000E+002   9.78575445E-001   5.90800296E-001   9.78571151E-001
   1.45000000E+002   9.81029426E-001   5.90804934E-001   9.81025787E-001
   1.50000000E+002   9.83020180E-001   5.90808705E-001   9.83017075E-001
   1.55000000E+002   9.84866759E-001   5.90811792E-001   9.84864101E-001
   1.60000000E+002   9.87057589E-001   5.90814336E-001   9.87055315E-001
   1.65000000E+002   9.88376770E-001   5.90816444E-001   9.88374802E-001
   1.70000000E+002   9.89353782E-001   5.90818202E-001   9.89352070E-001
   1.75000000E+002   9.90942091E-001   5.90819676E-001   9.90940607E-001
   1.80000000E+002   9.91719234E-001   5.90820917E-001   9.91717934E-001
   1.85000000E+002   9.92899374E-001   5.90821967E-001   9.92898239E-001
   1.90000000E+002   9.93680751E-001   5.90822861E-001   9.93679753E-001
   1.95000000E+002   9.94672546E-001   5.90823623E-001   9.94671667E-001
   2.00000000E+002   9.95194208E-001   5.90824277E-001   9.95193430E-001
   2.05000000E+002   9.95758106E-001   5.90824840E-001   9.95757415E-001
   2.10000000E+002   9.96264805E-001   5.90825326E-001   9.96264190E-001
   2.15000000E+002   9.96992955E-001   5.90825748E-001   9.96992409E-001
   2.20000000E+002   9.97344166E-001   5.90826114E-001   9.97343677E-001
   2.25000000E+002   9.97917248E-001   5.90826434E-001   9.97916811E-001
   2.30000000E+002   9.98226175E-001   5.90826714E-001   9.98225783E-001
   2.35000000E+002   9.98346057E-001   5.90826959E-001   9.98345703E-001
   2.40000000E+002   9.98774897E-001   5.90827176E-001   9.98774579E-001
   2.45000000E+002   9.99097406E-001   5.90827366E-001   9.99097118E-001
