# ./jetvheto -in n3lo-fixed-order/H125-LHC13-R04-mb-475-mt-1725-xmur025-xmuf050-log.fxd -xQ 0.5 -out benchmarks-n3lo-smallR/H125-LHC13-R04-mb-475-mt-1725-xmur025-xmuf050-xQ050-NNLO+NNLLa.res -scheme a -order 2 -ptmax 500.01 -fixed_order 2 -loop-mass t+b
# process = H    
# collider = pp   
# rts =  13000.000
# M   =    125.000
# muR =     31.250
# muF =     62.500
# Q   =     62.500
# p   =      5.000
# include_c1_squared =   F
# loop_mass  = t+b 
# alphas(MZ) =    0.11800
# alphas(M) =    0.11264
# alphas(muR) =    0.14091
# Rjet =      0.400
# order = NNLL
# pdf name and set = PDF4LHC15_nnlo_mc.LHgrid,    0
# matching scheme = a
# total cross sections [nb] at LO, NLOdiff, NNLOdiff, N3LOdiff =     0.017683    0.024805    0.005009   -0.002663
#----------------------------------------------------------------------
# the lines that follow give the jet-veto efficiencies as a function of pt
#         pt            matched eff      resummed eff     fixed-order eff
   2.00000000E+001   4.62543317E-001   4.63225801E-001   4.14085672E-001
   2.50000000E+001   5.47632403E-001   5.29223518E-001   5.05029093E-001
   3.00000000E+001   6.14934783E-001   5.74758578E-001   5.77905321E-001
   3.50000000E+001   6.68732863E-001   6.05770315E-001   6.37010945E-001
   4.00000000E+001   7.12213963E-001   6.26434936E-001   6.85569312E-001
   4.50000000E+001   7.48132149E-001   6.39760948E-001   7.26196393E-001
   5.00000000E+001   7.78145027E-001   6.48001681E-001   7.60456629E-001
   5.50000000E+001   8.03481096E-001   6.52859697E-001   7.89469884E-001
   6.00000000E+001   8.25233194E-001   6.55584135E-001   8.14281031E-001
   6.50000000E+001   8.44124801E-001   6.57036465E-001   8.35639279E-001
   7.00000000E+001   8.60800614E-001   6.57771325E-001   8.54251825E-001
   7.50000000E+001   8.75329105E-001   6.58121163E-001   8.70275272E-001
   8.00000000E+001   8.88274356E-001   6.58273235E-001   8.84361842E-001
   8.50000000E+001   8.99811363E-001   6.58327857E-001   8.96766205E-001
   9.00000000E+001   9.10022659E-001   6.58336962E-001   9.07637475E-001
   9.50000000E+001   9.19024707E-001   6.58326495E-001   9.17142453E-001
   1.00000000E+002   9.27129836E-001   6.58308991E-001   9.25632859E-001
   1.05000000E+002   9.34311485E-001   6.58290247E-001   9.33111490E-001
   1.10000000E+002   9.40730894E-001   6.58272746E-001   9.39761709E-001
   1.15000000E+002   9.46501113E-001   6.58257374E-001   9.45712400E-001
   1.20000000E+002   9.51668199E-001   6.58244287E-001   9.51021795E-001
   1.25000000E+002   9.56360298E-001   6.58233325E-001   9.55826863E-001
   1.30000000E+002   9.60505442E-001   6.58224220E-001   9.60062402E-001
   1.35000000E+002   9.64268324E-001   6.58216685E-001   9.63898119E-001
   1.40000000E+002   9.67678796E-001   6.58210453E-001   9.67367633E-001
   1.45000000E+002   9.70732140E-001   6.58205294E-001   9.70469170E-001
   1.50000000E+002   9.73531850E-001   6.58201014E-001   9.73308453E-001
   1.55000000E+002   9.76051187E-001   6.58197451E-001   9.75860478E-001
   1.60000000E+002   9.78329342E-001   6.58194477E-001   9.78165785E-001
   1.65000000E+002   9.80373769E-001   6.58191984E-001   9.80232885E-001
   1.70000000E+002   9.82241358E-001   6.58189887E-001   9.82119504E-001
   1.75000000E+002   9.83968476E-001   6.58188116E-001   9.83862660E-001
   1.80000000E+002   9.85492636E-001   6.58186614E-001   9.85400406E-001
   1.85000000E+002   9.86906154E-001   6.58185337E-001   9.86825476E-001
   1.90000000E+002   9.88194019E-001   6.58184246E-001   9.88123211E-001
   1.95000000E+002   9.89354373E-001   6.58183311E-001   9.89292025E-001
   2.00000000E+002   9.90407688E-001   6.58182507E-001   9.90352622E-001
   2.05000000E+002   9.91380822E-001   6.58181812E-001   9.91332044E-001
   2.10000000E+002   9.92236307E-001   6.58181211E-001   9.92192981E-001
   2.15000000E+002   9.93054132E-001   6.58180689E-001   9.93015542E-001
   2.20000000E+002   9.93801134E-001   6.58180234E-001   9.93766676E-001
   2.25000000E+002   9.94440541E-001   6.58179837E-001   9.94409698E-001
   2.30000000E+002   9.95087115E-001   6.58179488E-001   9.95059442E-001
   2.35000000E+002   9.95632868E-001   6.58179182E-001   9.95607983E-001
   2.40000000E+002   9.96144225E-001   6.58178912E-001   9.96121799E-001
   2.45000000E+002   9.96605204E-001   6.58178674E-001   9.96584953E-001
