# ./jetvheto -in n3lo-fixed-order/H125-LHC13-R04-mb-475-mt-1725-xmur025-xmuf025-log.fxd -xQ 0.25 -out benchmarks-n3lo-smallR/H125-LHC13-R04-mb-475-mt-1725-xmur025-xmuf025-xQ025-N3LO+NNLLa.R0-1.5.res -scheme a -order 2 -ptmax 500.01 -fixed_order 3 -small-r -loop-mass t+b -R0 1.5
# process = H    
# collider = pp   
# rts =  13000.000
# M   =    125.000
# muR =     31.250
# muF =     31.250
# Q   =     31.250
# p   =      5.000
# include_c1_squared =   F
# loop_mass  = t+b 
# alphas(MZ) =    0.11800
# alphas(M) =    0.11264
# alphas(muR) =    0.14091
# Rjet =      0.400
# order = NNLL
# pdf name and set = PDF4LHC15_nnlo_mc.LHgrid,    0
# matching scheme = a
# total cross sections [nb] at LO, NLOdiff, NNLOdiff, N3LOdiff =     0.016156    0.025248    0.006043   -0.002471
#----------------------------------------------------------------------
# the lines that follow give the jet-veto efficiencies as a function of pt
#         pt            matched eff      resummed eff     fixed-order eff
   2.00000000E+001   4.44625645E-001   4.22804408E-001   4.44433789E-001
   2.50000000E+001   5.34459210E-001   4.81637952E-001   5.33622985E-001
   3.00000000E+001   6.05399741E-001   5.16585876E-001   6.04415621E-001
   3.50000000E+001   6.62422944E-001   5.35741020E-001   6.61550274E-001
   4.00000000E+001   7.10145775E-001   5.45848415E-001   7.09498756E-001
   4.50000000E+001   7.50825603E-001   5.51204268E-001   7.50373558E-001
   5.00000000E+001   7.84580707E-001   5.54126128E-001   7.84261834E-001
   5.50000000E+001   8.14661985E-001   5.55783097E-001   8.14443054E-001
   6.00000000E+001   8.38948176E-001   5.56761088E-001   8.38789906E-001
   6.50000000E+001   8.57463647E-001   5.57360474E-001   8.57342801E-001
   7.00000000E+001   8.75874425E-001   5.57740581E-001   8.75785457E-001
   7.50000000E+001   8.91406528E-001   5.57989096E-001   8.91339980E-001
   8.00000000E+001   9.03782083E-001   5.58156042E-001   9.03730538E-001
   8.50000000E+001   9.15640229E-001   5.58270932E-001   9.15600559E-001
   9.00000000E+001   9.25921558E-001   5.58351718E-001   9.25890654E-001
   9.50000000E+001   9.32583255E-001   5.58409628E-001   9.32558210E-001
   1.00000000E+002   9.41192774E-001   5.58451867E-001   9.41173070E-001
   1.05000000E+002   9.47103975E-001   5.58483162E-001   9.47087958E-001
   1.10000000E+002   9.53806566E-001   5.58506679E-001   9.53793702E-001
   1.15000000E+002   9.59367909E-001   5.58524582E-001   9.59357429E-001
   1.20000000E+002   9.63359839E-001   5.58538373E-001   9.63351142E-001
   1.25000000E+002   9.66730429E-001   5.58549112E-001   9.66723166E-001
   1.30000000E+002   9.70580828E-001   5.58557559E-001   9.70574784E-001
   1.35000000E+002   9.73529442E-001   5.58564265E-001   9.73524354E-001
   1.40000000E+002   9.76402181E-001   5.58569634E-001   9.76397890E-001
   1.45000000E+002   9.79069460E-001   5.58573967E-001   9.79065823E-001
   1.50000000E+002   9.81251634E-001   5.58577490E-001   9.81248530E-001
   1.55000000E+002   9.83274440E-001   5.58580374E-001   9.83271782E-001
   1.60000000E+002   9.85647880E-001   5.58582750E-001   9.85645607E-001
   1.65000000E+002   9.87090576E-001   5.58584720E-001   9.87088609E-001
   1.70000000E+002   9.88186600E-001   5.58586362E-001   9.88184889E-001
   1.75000000E+002   9.89908405E-001   5.58587738E-001   9.89906922E-001
   1.80000000E+002   9.90762853E-001   5.58588898E-001   9.90761554E-001
   1.85000000E+002   9.92040323E-001   5.58589879E-001   9.92039188E-001
   1.90000000E+002   9.92900846E-001   5.58590713E-001   9.92899847E-001
   1.95000000E+002   9.93971278E-001   5.58591426E-001   9.93970400E-001
   2.00000000E+002   9.94559902E-001   5.58592037E-001   9.94559124E-001
   2.05000000E+002   9.95182164E-001   5.58592563E-001   9.95181474E-001
   2.10000000E+002   9.95734619E-001   5.58593017E-001   9.95734005E-001
   2.15000000E+002   9.96530250E-001   5.58593410E-001   9.96529704E-001
   2.20000000E+002   9.96928457E-001   5.58593753E-001   9.96927968E-001
   2.25000000E+002   9.97539829E-001   5.58594052E-001   9.97539392E-001
   2.30000000E+002   9.97883086E-001   5.58594313E-001   9.97882693E-001
   2.35000000E+002   9.98040903E-001   5.58594542E-001   9.98040550E-001
   2.40000000E+002   9.98510483E-001   5.58594744E-001   9.98510165E-001
   2.45000000E+002   9.98851063E-001   5.58594923E-001   9.98850776E-001
