# ./jetvheto -in n3lo-fixed-order/H125-LHC13-R04-mb-0-mt-1725-xmur100-xmuf100-log.fxd -xQ 0.333 -out benchmarks-n3lo-smallR/H125-LHC13-R04-mb-0-mt-1725-xmur100-xmuf100-xQ033-NNLO+NNLLb.R0-1.5.res -scheme b -order 2 -ptmax 500.01 -small-r -fixed_order 2 -loop-mass t -R0 1.5
# process = H    
# collider = pp   
# rts =  13000.000
# M   =    125.000
# muR =    125.000
# muF =    125.000
# Q   =     41.625
# p   =      5.000
# include_c1_squared =   F
# loop_mass  = t   
# alphas(MZ) =    0.11800
# alphas(M) =    0.11264
# alphas(muR) =    0.11264
# Rjet =      0.400
# order = NNLL
# pdf name and set = PDF4LHC15_nnlo_mc.LHgrid,    0
# matching scheme = b
# total cross sections [nb] at LO, NLOdiff, NNLOdiff, N3LOdiff =     0.013801    0.017514    0.010146    0.003834
#----------------------------------------------------------------------
# the lines that follow give the jet-veto efficiencies as a function of pt
#         pt            matched eff      resummed eff     fixed-order eff
   2.00000000E+001   4.19977813E-001   5.29719772E-001   3.54033455E-001
   2.50000000E+001   5.01668903E-001   6.09164024E-001   4.61286580E-001
   3.00000000E+001   5.68307551E-001   6.62745956E-001   5.43462220E-001
   3.50000000E+001   6.23750589E-001   6.97380201E-001   6.08508831E-001
   4.00000000E+001   6.70532094E-001   7.18834594E-001   6.61203589E-001
   4.50000000E+001   7.10147977E-001   7.31736520E-001   7.04404447E-001
   5.00000000E+001   7.44082758E-001   7.39418699E-001   7.40494892E-001
   5.50000000E+001   7.73179064E-001   7.44028753E-001   7.70889733E-001
   6.00000000E+001   7.98370159E-001   7.46848622E-001   7.96874542E-001
   6.50000000E+001   8.20208599E-001   7.48616322E-001   8.19206785E-001
   7.00000000E+001   8.39096892E-001   7.49753707E-001   8.38409214E-001
   7.50000000E+001   8.55713303E-001   7.50504434E-001   8.55230292E-001
   8.00000000E+001   8.70308872E-001   7.51011979E-001   8.69962422E-001
   8.50000000E+001   8.83077096E-001   7.51362790E-001   8.82823656E-001
   9.00000000E+001   8.94397811E-001   7.51610218E-001   8.94209219E-001
   9.50000000E+001   9.04372630E-001   7.51787970E-001   9.04230001E-001
   1.00000000E+002   9.13277373E-001   7.51917823E-001   9.13167919E-001
   1.05000000E+002   9.21219658E-001   7.52014140E-001   9.21134551E-001
   1.10000000E+002   9.28238442E-001   7.52086584E-001   9.28171457E-001
   1.15000000E+002   9.34606934E-001   7.52141769E-001   9.34553636E-001
   1.20000000E+002   9.40287061E-001   7.52184301E-001   9.40244216E-001
   1.25000000E+002   9.45424226E-001   7.52217435E-001   9.45389469E-001
   1.30000000E+002   9.50070986E-001   7.52243504E-001   9.50042546E-001
   1.35000000E+002   9.54251870E-001   7.52264204E-001   9.54228420E-001
   1.40000000E+002   9.58032652E-001   7.52280780E-001   9.58013167E-001
   1.45000000E+002   9.61508913E-001   7.52294160E-001   9.61492620E-001
   1.50000000E+002   9.64609292E-001   7.52305039E-001   9.64595577E-001
   1.55000000E+002   9.67476545E-001   7.52313947E-001   9.67464933E-001
   1.60000000E+002   9.70094800E-001   7.52321286E-001   9.70084916E-001
   1.65000000E+002   9.72464105E-001   7.52327371E-001   9.72455647E-001
   1.70000000E+002   9.74641631E-001   7.52332444E-001   9.74634361E-001
   1.75000000E+002   9.76598624E-001   7.52336697E-001   9.76592344E-001
   1.80000000E+002   9.78414026E-001   7.52340279E-001   9.78408580E-001
   1.85000000E+002   9.80060599E-001   7.52343311E-001   9.80055856E-001
   1.90000000E+002   9.81585969E-001   7.52345889E-001   9.81581823E-001
   1.95000000E+002   9.82996441E-001   7.52348091E-001   9.82992805E-001
   2.00000000E+002   9.84274187E-001   7.52349979E-001   9.84270986E-001
   2.05000000E+002   9.85467453E-001   7.52351603E-001   9.85464627E-001
   2.10000000E+002   9.86545838E-001   7.52353006E-001   9.86543334E-001
   2.15000000E+002   9.87529624E-001   7.52354223E-001   9.87527400E-001
   2.20000000E+002   9.88452885E-001   7.52355281E-001   9.88450903E-001
   2.25000000E+002   9.89297379E-001   7.52356204E-001   9.89295609E-001
   2.30000000E+002   9.90079410E-001   7.52357012E-001   9.90077825E-001
   2.35000000E+002   9.90813074E-001   7.52357721E-001   9.90811652E-001
   2.40000000E+002   9.91471172E-001   7.52358345E-001   9.91469891E-001
   2.45000000E+002   9.92090373E-001   7.52358896E-001   9.92089219E-001
