# ./jetvheto -in n3lo-fixed-order/H125-LHC13-R04-mb-0-mt-1725-xmur025-xmuf050-log.fxd -xQ 0.5 -out benchmarks-n3lo-smallR/H125-LHC13-R04-mb-0-mt-1725-xmur025-xmuf050-xQ050-N3LO+NNLLa.R0-1.0.res -scheme a -order 2 -ptmax 500.01 -small-r -fixed_order 3 -loop-mass t -R0 1.0
# process = H    
# collider = pp   
# rts =  13000.000
# M   =    125.000
# muR =     31.250
# muF =     62.500
# Q   =     62.500
# p   =      5.000
# include_c1_squared =   F
# loop_mass  = t   
# alphas(MZ) =    0.11800
# alphas(M) =    0.11264
# alphas(muR) =    0.14091
# Rjet =      0.400
# order = NNLL
# pdf name and set = PDF4LHC15_nnlo_mc.LHgrid,    0
# matching scheme = a
# total cross sections [nb] at LO, NLOdiff, NNLOdiff, N3LOdiff =     0.019855    0.024744    0.005009   -0.002663
#----------------------------------------------------------------------
# the lines that follow give the jet-veto efficiencies as a function of pt
#         pt            matched eff      resummed eff     fixed-order eff
   2.00000000E+001   4.85651113E-001   4.99854392E-001   4.64441433E-001
   2.50000000E+001   5.66425091E-001   5.67248373E-001   5.46982713E-001
   3.00000000E+001   6.37127854E-001   6.13644514E-001   6.21747969E-001
   3.50000000E+001   6.92752288E-001   6.45167236E-001   6.80660873E-001
   4.00000000E+001   7.34191798E-001   6.66103999E-001   7.24684346E-001
   4.50000000E+001   7.71895745E-001   6.79540447E-001   7.64688533E-001
   5.00000000E+001   8.01282298E-001   6.87789095E-001   7.95840800E-001
   5.50000000E+001   8.27235210E-001   6.92598133E-001   8.23173148E-001
   6.00000000E+001   8.48079616E-001   6.95249435E-001   8.45052906E-001
   6.50000000E+001   8.68576597E-001   6.96624993E-001   8.66318719E-001
   7.00000000E+001   8.83024285E-001   6.97290231E-001   8.81329841E-001
   7.50000000E+001   8.96397720E-001   6.97581725E-001   8.95119563E-001
   8.00000000E+001   9.08788129E-001   6.97687078E-001   9.07814578E-001
   8.50000000E+001   9.19880703E-001   6.97705231E-001   9.19132236E-001
   9.00000000E+001   9.29696033E-001   6.97686244E-001   9.29114976E-001
   9.50000000E+001   9.36978694E-001   6.97654251E-001   9.36524636E-001
   1.00000000E+002   9.44322065E-001   6.97620251E-001   9.43963449E-001
   1.05000000E+002   9.49663356E-001   6.97588828E-001   9.49378223E-001
   1.10000000E+002   9.54707088E-001   6.97561527E-001   9.54478252E-001
   1.15000000E+002   9.59724324E-001   6.97538536E-001   9.59539125E-001
   1.20000000E+002   9.64256638E-001   6.97519481E-001   9.64105612E-001
   1.25000000E+002   9.67748255E-001   6.97503812E-001   9.67624322E-001
   1.30000000E+002   9.70697684E-001   6.97490968E-001   9.70595359E-001
   1.35000000E+002   9.73902783E-001   6.97480440E-001   9.73817644E-001
   1.40000000E+002   9.76829485E-001   6.97471797E-001   9.76758237E-001
   1.45000000E+002   9.79284975E-001   6.97464682E-001   9.79225058E-001
   1.50000000E+002   9.80890872E-001   6.97458804E-001   9.80840244E-001
   1.55000000E+002   9.83216673E-001   6.97453930E-001   9.83173622E-001
   1.60000000E+002   9.85277148E-001   6.97449872E-001   9.85240369E-001
   1.65000000E+002   9.86049981E-001   6.97446478E-001   9.86018475E-001
   1.70000000E+002   9.87623246E-001   6.97443629E-001   9.87596097E-001
   1.75000000E+002   9.89094062E-001   6.97441226E-001   9.89070565E-001
   1.80000000E+002   9.90050561E-001   6.97439192E-001   9.90030165E-001
   1.85000000E+002   9.90921814E-001   6.97437463E-001   9.90904044E-001
   1.90000000E+002   9.91933705E-001   6.97435988E-001   9.91918160E-001
   1.95000000E+002   9.92882389E-001   6.97434725E-001   9.92868747E-001
   2.00000000E+002   9.93694275E-001   6.97433639E-001   9.93682266E-001
   2.05000000E+002   9.94228611E-001   6.97432702E-001   9.94218008E-001
   2.10000000E+002   9.94850100E-001   6.97431891E-001   9.94840712E-001
   2.15000000E+002   9.95217448E-001   6.97431187E-001   9.95209113E-001
   2.20000000E+002   9.96068519E-001   6.97430574E-001   9.96061092E-001
   2.25000000E+002   9.96299127E-001   6.97430039E-001   9.96292501E-001
   2.30000000E+002   9.96705738E-001   6.97429569E-001   9.96699807E-001
   2.35000000E+002   9.96938555E-001   6.97429157E-001   9.96933235E-001
   2.40000000E+002   9.97255688E-001   6.97428794E-001   9.97250905E-001
   2.45000000E+002   9.97731809E-001   6.97428473E-001   9.97727498E-001
