# ./jetvheto -in n3lo-fixed-order/H125-LHC13-R04-mb-475-mt-1725-xmur050-xmuf050-log.fxd -xQ 1.0 -out benchmarks-n3lo-smallR/H125-LHC13-R04-mb-475-mt-1725-xmur050-xmuf050-xQ100-NNLO+NNLLb.R0-1.5.res -scheme b -order 2 -ptmax 500.01 -fixed_order 2 -small-r -loop-mass t+b -R0 1.5
# process = H    
# collider = pp   
# rts =  13000.000
# M   =    125.000
# muR =     62.500
# muF =     62.500
# Q   =    125.000
# p   =      5.000
# include_c1_squared =   F
# loop_mass  = t+b 
# alphas(MZ) =    0.11800
# alphas(M) =    0.11264
# alphas(muR) =    0.12516
# Rjet =      0.400
# order = NNLL
# pdf name and set = PDF4LHC15_nnlo_mc.LHgrid,    0
# matching scheme = b
# total cross sections [nb] at LO, NLOdiff, NNLOdiff, N3LOdiff =     0.014147    0.020254    0.008998    0.001413
#----------------------------------------------------------------------
# the lines that follow give the jet-veto efficiencies as a function of pt
#         pt            matched eff      resummed eff     fixed-order eff
   2.00000000E+001   4.84304945E-001   6.12566219E-001   3.08135668E-001
   2.50000000E+001   5.61563681E-001   6.83857643E-001   4.16958718E-001
   3.00000000E+001   6.24145128E-001   7.32203992E-001   5.02459671E-001
   3.50000000E+001   6.75453358E-001   7.64546128E-001   5.71196452E-001
   4.00000000E+001   7.17798716E-001   7.85593830E-001   6.27360842E-001
   4.50000000E+001   7.53468874E-001   7.98515392E-001   6.74295094E-001
   5.00000000E+001   7.83526007E-001   8.05516024E-001   7.13816378E-001
   5.50000000E+001   8.08895590E-001   8.08179473E-001   7.47307378E-001
   6.00000000E+001   8.30534861E-001   8.07658030E-001   7.76012324E-001
   6.50000000E+001   8.49054812E-001   8.04815488E-001   8.00751743E-001
   7.00000000E+001   8.65147678E-001   8.00315130E-001   8.22342000E-001
   7.50000000E+001   8.78912160E-001   7.94668299E-001   8.41024239E-001
   8.00000000E+001   8.90979712E-001   7.88278935E-001   8.57481768E-001
   8.50000000E+001   9.01595952E-001   7.81472042E-001   8.72028209E-001
   9.00000000E+001   9.10828875E-001   7.74509515E-001   8.84788465E-001
   9.50000000E+001   9.18905151E-001   7.67599770E-001   8.96030076E-001
   1.00000000E+002   9.26142099E-001   7.60906757E-001   9.06088095E-001
   1.05000000E+002   9.32561836E-001   7.54553332E-001   9.15022873E-001
   1.10000000E+002   9.38277304E-001   7.48625567E-001   9.22967578E-001
   1.15000000E+002   9.43466748E-001   7.43177540E-001   9.30123525E-001
   1.20000000E+002   9.48139822E-001   7.38234466E-001   9.36525194E-001
   1.25000000E+002   9.52444901E-001   7.33798857E-001   9.42341979E-001
   1.30000000E+002   9.56294404E-001   7.29855822E-001   9.47512677E-001
   1.35000000E+002   9.59826901E-001   7.26377896E-001   9.52192707E-001
   1.40000000E+002   9.63092925E-001   7.23329551E-001   9.56453519E-001
   1.45000000E+002   9.66069231E-001   7.20670969E-001   9.60291255E-001
   1.50000000E+002   9.68840395E-001   7.18360998E-001   9.63805964E-001
   1.55000000E+002   9.71379030E-001   7.16359288E-001   9.66986816E-001
   1.60000000E+002   9.73710309E-001   7.14627721E-001   9.69872376E-001
   1.65000000E+002   9.75839138E-001   7.13131210E-001   9.72479918E-001
   1.70000000E+002   9.77802916E-001   7.11838202E-001   9.74856924E-001
   1.75000000E+002   9.79647270E-001   7.10720736E-001   9.77058190E-001
   1.80000000E+002   9.81305915E-001   7.09754267E-001   9.79026110E-001
   1.85000000E+002   9.82866999E-001   7.08917468E-001   9.80855018E-001
   1.90000000E+002   9.84300605E-001   7.08191930E-001   9.82521082E-001
   1.95000000E+002   9.85615056E-001   7.07561840E-001   9.84037765E-001
   2.00000000E+002   9.86821806E-001   7.07013660E-001   9.85420716E-001
   2.05000000E+002   9.87944561E-001   7.06535823E-001   9.86697220E-001
   2.10000000E+002   9.88949547E-001   7.06118464E-001   9.87836822E-001
   2.15000000E+002   9.89914411E-001   7.05753170E-001   9.88919546E-001
   2.20000000E+002   9.90804409E-001   7.05432771E-001   9.89913075E-001
   2.25000000E+002   9.91586734E-001   7.05151149E-001   9.90786656E-001
   2.30000000E+002   9.92360120E-001   7.04903083E-001   9.91640359E-001
   2.35000000E+002   9.93033401E-001   7.04684109E-001   9.92384747E-001
   2.40000000E+002   9.93668270E-001   7.04490408E-001   9.93082569E-001
   2.45000000E+002   9.94241697E-001   7.04318707E-001   9.93711871E-001
