# ./jetvheto -in n3lo-fixed-order/H125-LHC13-R04-mb-475-mt-1725-xmur100-xmuf100-log.fxd -xQ 0.75 -out benchmarks-n3lo-smallR/H125-LHC13-R04-mb-475-mt-1725-xmur100-xmuf100-xQ075-N3LO+NNLLb.R0-2.0.res -scheme b -order 2 -ptmax 500.01 -fixed_order 3 -small-r -loop-mass t+b -R0 2.0
# process = H    
# collider = pp   
# rts =  13000.000
# M   =    125.000
# muR =    125.000
# muF =    125.000
# Q   =     93.750
# p   =      5.000
# include_c1_squared =   F
# loop_mass  = t+b 
# alphas(MZ) =    0.11800
# alphas(M) =    0.11264
# alphas(muR) =    0.11264
# Rjet =      0.400
# order = NNLL
# pdf name and set = PDF4LHC15_nnlo_mc.LHgrid,    0
# matching scheme = b
# total cross sections [nb] at LO, NLOdiff, NNLOdiff, N3LOdiff =     0.012292    0.016994    0.010146    0.003834
#----------------------------------------------------------------------
# the lines that follow give the jet-veto efficiencies as a function of pt
#         pt            matched eff      resummed eff     fixed-order eff
   2.00000000E+001   4.46944597E-001   5.48534237E-001   3.97974970E-001
   2.50000000E+001   5.31004164E-001   6.27077913E-001   4.91794485E-001
   3.00000000E+001   6.02993919E-001   6.82330083E-001   5.70830727E-001
   3.50000000E+001   6.59782689E-001   7.20898051E-001   6.32372721E-001
   4.00000000E+001   7.05910312E-001   7.47396467E-001   6.82195687E-001
   4.50000000E+001   7.43540657E-001   7.65081004E-001   7.22903550E-001
   5.00000000E+001   7.75479825E-001   7.76277082E-001   7.57489684E-001
   5.50000000E+001   8.02734657E-001   7.82703834E-001   7.87062825E-001
   6.00000000E+001   8.25661785E-001   7.85664502E-001   8.12064423E-001
   6.50000000E+001   8.46169165E-001   7.86171177E-001   8.34389891E-001
   7.00000000E+001   8.63397449E-001   7.85018063E-001   8.53266196E-001
   7.50000000E+001   8.77549140E-001   7.82825360E-001   8.68915734E-001
   8.00000000E+001   8.90044156E-001   7.80069711E-001   8.82724838E-001
   8.50000000E+001   9.01359420E-001   7.77102790E-001   8.95173737E-001
   9.00000000E+001   9.11048103E-001   7.74169010E-001   9.05851124E-001
   9.50000000E+001   9.19965904E-001   7.71422584E-001   9.15604325E-001
   1.00000000E+002   9.27398682E-001   7.68947440E-001   9.23755321E-001
   1.05000000E+002   9.34138202E-001   7.66776597E-001   9.31095317E-001
   1.10000000E+002   9.40219873E-001   7.64909398E-001   9.37676052E-001
   1.15000000E+002   9.45718537E-001   7.63325355E-001   9.43589165E-001
   1.20000000E+002   9.50476147E-001   7.61994017E-001   9.48691534E-001
   1.25000000E+002   9.54663689E-001   7.60881749E-001   9.53165332E-001
   1.30000000E+002   9.58875848E-001   7.59955671E-001   9.57610782E-001
   1.35000000E+002   9.62598619E-001   7.59185735E-001   9.61527659E-001
   1.40000000E+002   9.65719687E-001   7.58545600E-001   9.64811168E-001
   1.45000000E+002   9.68734757E-001   7.58012789E-001   9.67960469E-001
   1.50000000E+002   9.71291123E-001   7.57568459E-001   9.70629444E-001
   1.55000000E+002   9.74065518E-001   7.57196992E-001   9.73496621E-001
   1.60000000E+002   9.75928469E-001   7.56885541E-001   9.75439366E-001
   1.65000000E+002   9.77955733E-001   7.56623583E-001   9.77532916E-001
   1.70000000E+002   9.79728749E-001   7.56402520E-001   9.79362104E-001
   1.75000000E+002   9.81461775E-001   7.56215329E-001   9.81142536E-001
   1.80000000E+002   9.83044474E-001   7.56056270E-001   9.82765601E-001
   1.85000000E+002   9.84476813E-001   7.55920648E-001   9.84232456E-001
   1.90000000E+002   9.85474347E-001   7.55804614E-001   9.85259944E-001
   1.95000000E+002   9.86769627E-001   7.55705004E-001   9.86580536E-001
   2.00000000E+002   9.87868693E-001   7.55619210E-001   9.87701531E-001
   2.05000000E+002   9.88810965E-001   7.55545080E-001   9.88662839E-001
   2.10000000E+002   9.89662846E-001   7.55480826E-001   9.89531244E-001
   2.15000000E+002   9.90597057E-001   7.55424964E-001   9.90479731E-001
   2.20000000E+002   9.91278237E-001   7.55376254E-001   9.91173490E-001
   2.25000000E+002   9.91995826E-001   7.55333660E-001   9.91902037E-001
   2.30000000E+002   9.92662481E-001   7.55296311E-001   9.92578309E-001
   2.35000000E+002   9.93278194E-001   7.55263475E-001   9.93202487E-001
   2.40000000E+002   9.93696324E-001   7.55234531E-001   9.93628140E-001
   2.45000000E+002   9.94261246E-001   7.55208955E-001   9.94199651E-001
