# ./jetvheto -in n3lo-fixed-order/H125-LHC13-R04-mb-475-mt-1725-xmur200-xmuf100-log.fxd -xQ 0.5 -out benchmarks-n3lo-smallR/H125-LHC13-R04-mb-475-mt-1725-xmur200-xmuf100-xQ050-N3LO+NNLLb.R0-0.5.res -scheme b -order 2 -ptmax 500.01 -fixed_order 3 -small-r -loop-mass t+b -R0 0.5
# process = H    
# collider = pp   
# rts =  13000.000
# M   =    125.000
# muR =    250.000
# muF =    125.000
# Q   =     62.500
# p   =      5.000
# include_c1_squared =   F
# loop_mass  = t+b 
# alphas(MZ) =    0.11800
# alphas(M) =    0.11264
# alphas(muR) =    0.10244
# Rjet =      0.400
# order = NNLL
# pdf name and set = PDF4LHC15_nnlo_mc.LHgrid,    0
# matching scheme = b
# total cross sections [nb] at LO, NLOdiff, NNLOdiff, N3LOdiff =     0.010243    0.014468    0.010526    0.005600
#----------------------------------------------------------------------
# the lines that follow give the jet-veto efficiencies as a function of pt
#         pt            matched eff      resummed eff     fixed-order eff
   2.00000000E+001   4.17852200E-001   5.12945832E-001   3.89818525E-001
   2.50000000E+001   5.04158737E-001   5.97032511E-001   4.86093830E-001
   3.00000000E+001   5.77048517E-001   6.57243790E-001   5.64941031E-001
   3.50000000E+001   6.35680271E-001   6.99837971E-001   6.26766390E-001
   4.00000000E+001   6.83723036E-001   7.29442295E-001   6.76837357E-001
   4.50000000E+001   7.23352245E-001   7.49536585E-001   7.17902185E-001
   5.00000000E+001   7.56975264E-001   7.62799713E-001   7.52652485E-001
   5.50000000E+001   7.85665331E-001   7.71308671E-001   7.82254482E-001
   6.00000000E+001   8.10078805E-001   7.76640916E-001   8.07403331E-001
   6.50000000E+001   8.31706677E-001   7.79935957E-001   8.29625457E-001
   7.00000000E+001   8.50162142E-001   7.81967099E-001   8.48548309E-001
   7.50000000E+001   8.65728719E-001   7.83230077E-001   8.64477541E-001
   8.00000000E+001   8.79501759E-001   7.84029267E-001   8.78530213E-001
   8.50000000E+001   8.91833558E-001   7.84546702E-001   8.91076567E-001
   9.00000000E+001   9.02564590E-001   7.84890383E-001   9.01971116E-001
   9.50000000E+001   9.12276895E-001   7.85124632E-001   9.11808698E-001
   1.00000000E+002   9.20568443E-001   7.85288283E-001   9.20196285E-001
   1.05000000E+002   9.28037867E-001   7.85405245E-001   9.27739849E-001
   1.10000000E+002   9.34709377E-001   7.85490576E-001   9.34468996E-001
   1.15000000E+002   9.40729373E-001   7.85553984E-001   9.40534037E-001
   1.20000000E+002   9.45971210E-001   7.85601879E-001   9.45811365E-001
   1.25000000E+002   9.50638353E-001   7.85638586E-001   9.50506638E-001
   1.30000000E+002   9.55131587E-001   7.85667087E-001   9.55022375E-001
   1.35000000E+002   9.59131501E-001   7.85689475E-001   9.59040379E-001
   1.40000000E+002   9.62562899E-001   7.85707247E-001   9.62486427E-001
   1.45000000E+002   9.65814369E-001   7.85721488E-001   9.65749830E-001
   1.50000000E+002   9.68620862E-001   7.85733000E-001   9.68566114E-001
   1.55000000E+002   9.71495158E-001   7.85742379E-001   9.71448489E-001
   1.60000000E+002   9.73641394E-001   7.85750077E-001   9.73601413E-001
   1.65000000E+002   9.75826274E-001   7.85756436E-001   9.75791876E-001
   1.70000000E+002   9.77766721E-001   7.85761724E-001   9.77737000E-001
   1.75000000E+002   9.79610216E-001   7.85766145E-001   9.79584436E-001
   1.80000000E+002   9.81295845E-001   7.85769862E-001   9.81273397E-001
   1.85000000E+002   9.82825812E-001   7.85773003E-001   9.82806195E-001
   1.90000000E+002   9.84009282E-001   7.85775670E-001   9.83992078E-001
   1.95000000E+002   9.85365389E-001   7.85777945E-001   9.85350253E-001
   2.00000000E+002   9.86541983E-001   7.85779893E-001   9.86528625E-001
   2.05000000E+002   9.87579112E-001   7.85781568E-001   9.87567287E-001
   2.10000000E+002   9.88520007E-001   7.85783014E-001   9.88509511E-001
   2.15000000E+002   9.89483997E-001   7.85784266E-001   9.89474655E-001
   2.20000000E+002   9.90253021E-001   7.85785355E-001   9.90244684E-001
   2.25000000E+002   9.91022206E-001   7.85786304E-001   9.91014747E-001
   2.30000000E+002   9.91734668E-001   7.85787135E-001   9.91727980E-001
   2.35000000E+002   9.92394804E-001   7.85787863E-001   9.92388792E-001
   2.40000000E+002   9.92894534E-001   7.85788504E-001   9.92889118E-001
   2.45000000E+002   9.93485077E-001   7.85789070E-001   9.93480189E-001
