# ./jetvheto -in n3lo-fixed-order/H125-LHC13-R04-mb-475-mt-1725-xmur100-xmuf050-log.fxd -xQ 0.25 -out benchmarks-n3lo-smallR/H125-LHC13-R04-mb-475-mt-1725-xmur100-xmuf050-xQ025-NNLO+NNLLa.res -scheme a -order 2 -ptmax 500.01 -fixed_order 2 -loop-mass t+b
# process = H    
# collider = pp   
# rts =  13000.000
# M   =    125.000
# muR =    125.000
# muF =     62.500
# Q   =     31.250
# p   =      5.000
# include_c1_squared =   F
# loop_mass  = t+b 
# alphas(MZ) =    0.11800
# alphas(M) =    0.11264
# alphas(muR) =    0.11264
# Rjet =      0.400
# order = NNLL
# pdf name and set = PDF4LHC15_nnlo_mc.LHgrid,    0
# matching scheme = a
# total cross sections [nb] at LO, NLOdiff, NNLOdiff, N3LOdiff =     0.011575    0.016866    0.010424    0.004163
#----------------------------------------------------------------------
# the lines that follow give the jet-veto efficiencies as a function of pt
#         pt            matched eff      resummed eff     fixed-order eff
   2.00000000E+001   4.67940446E-001   5.09007862E-001   4.89064583E-001
   2.50000000E+001   5.55939205E-001   5.80773488E-001   5.70034720E-001
   3.00000000E+001   6.24252158E-001   6.23292551E-001   6.32942870E-001
   3.50000000E+001   6.78011338E-001   6.46551750E-001   6.83258386E-001
   4.00000000E+001   7.21033770E-001   6.58808840E-001   7.24239561E-001
   4.50000000E+001   7.56450472E-001   6.65298310E-001   7.58461479E-001
   5.00000000E+001   7.85953585E-001   6.68836880E-001   7.87253375E-001
   5.50000000E+001   8.10797107E-001   6.70843016E-001   8.11661801E-001
   6.00000000E+001   8.32019114E-001   6.72026897E-001   8.32610002E-001
   6.50000000E+001   8.50263110E-001   6.72752394E-001   8.50676857E-001
   7.00000000E+001   8.66161166E-001   6.73212447E-001   8.66457347E-001
   7.50000000E+001   8.79937164E-001   6.73513217E-001   8.80153278E-001
   8.00000000E+001   8.92072105E-001   6.73715263E-001   8.92232619E-001
   8.50000000E+001   9.02811296E-001   6.73854304E-001   9.02932418E-001
   9.00000000E+001   9.12230615E-001   6.73952071E-001   9.12323320E-001
   9.50000000E+001   9.20560823E-001   6.74022154E-001   9.20632683E-001
   1.00000000E+002   9.28017698E-001   6.74073271E-001   9.28074069E-001
   1.05000000E+002   9.34671429E-001   6.74111143E-001   9.34716121E-001
   1.10000000E+002   9.40586223E-001   6.74139603E-001   9.40622008E-001
   1.15000000E+002   9.45932215E-001   6.74161268E-001   9.45961129E-001
   1.20000000E+002   9.50720923E-001   6.74177958E-001   9.50744483E-001
   1.25000000E+002   9.55081046E-001   6.74190954E-001   9.55100393E-001
   1.30000000E+002   9.58974328E-001   6.74201177E-001   9.58990329E-001
   1.35000000E+002   9.62496760E-001   6.74209292E-001   9.62510083E-001
   1.40000000E+002   9.65714658E-001   6.74215789E-001   9.65725821E-001
   1.45000000E+002   9.68624541E-001   6.74221032E-001   9.68633949E-001
   1.50000000E+002   9.71289919E-001   6.74225295E-001   9.71297891E-001
   1.55000000E+002   9.73710748E-001   6.74228785E-001   9.73717539E-001
   1.60000000E+002   9.75911633E-001   6.74231661E-001   9.75917445E-001
   1.65000000E+002   9.77908418E-001   6.74234045E-001   9.77913415E-001
   1.70000000E+002   9.79727471E-001   6.74236032E-001   9.79731786E-001
   1.75000000E+002   9.81413959E-001   6.74237698E-001   9.81417700E-001
   1.80000000E+002   9.82931920E-001   6.74239101E-001   9.82935177E-001
   1.85000000E+002   9.84344634E-001   6.74240288E-001   9.84347479E-001
   1.90000000E+002   9.85631761E-001   6.74241298E-001   9.85634255E-001
   1.95000000E+002   9.86809724E-001   6.74242160E-001   9.86811918E-001
   2.00000000E+002   9.87886377E-001   6.74242900E-001   9.87888312E-001
   2.05000000E+002   9.88879913E-001   6.74243536E-001   9.88881626E-001
   2.10000000E+002   9.89773588E-001   6.74244086E-001   9.89775108E-001
   2.15000000E+002   9.90620355E-001   6.74244562E-001   9.90621707E-001
   2.20000000E+002   9.91399183E-001   6.74244976E-001   9.91400389E-001
   2.25000000E+002   9.92092667E-001   6.74245338E-001   9.92093747E-001
   2.30000000E+002   9.92759717E-001   6.74245654E-001   9.92760685E-001
   2.35000000E+002   9.93350326E-001   6.74245932E-001   9.93351196E-001
   2.40000000E+002   9.93904187E-001   6.74246176E-001   9.93904970E-001
   2.45000000E+002   9.94403768E-001   6.74246392E-001   9.94404475E-001
