# ./jetvheto -in n3lo-fixed-order/H125-LHC13-R04-mb-0-mt-1725-xmur050-xmuf050-log.fxd -xQ 0.125 -out benchmarks-n3lo-smallR/H125-LHC13-R04-mb-0-mt-1725-xmur050-xmuf050-xQ125-N3LO+NNLLa.R0-1.5.res -scheme a -order 2 -ptmax 500.01 -small-r -fixed_order 3 -loop-mass t -R0 1.5
# process = H    
# collider = pp   
# rts =  13000.000
# M   =    125.000
# muR =     62.500
# muF =     62.500
# Q   =     15.625
# p   =      5.000
# include_c1_squared =   F
# loop_mass  = t   
# alphas(MZ) =    0.11800
# alphas(M) =    0.11264
# alphas(muR) =    0.12516
# Rjet =      0.400
# order = NNLL
# pdf name and set = PDF4LHC15_nnlo_mc.LHgrid,    0
# matching scheme = a
# total cross sections [nb] at LO, NLOdiff, NNLOdiff, N3LOdiff =     0.015885    0.020561    0.008998    0.001413
#----------------------------------------------------------------------
# the lines that follow give the jet-veto efficiencies as a function of pt
#         pt            matched eff      resummed eff     fixed-order eff
   2.00000000E+001   4.58232364E-001   4.41596529E-001   4.58478332E-001
   2.50000000E+001   5.43576208E-001   4.56069828E-001   5.43713081E-001
   3.00000000E+001   6.15955323E-001   4.60786448E-001   6.16066731E-001
   3.50000000E+001   6.73415994E-001   4.62553888E-001   6.73487735E-001
   4.00000000E+001   7.18025121E-001   4.63305917E-001   7.18067162E-001
   4.50000000E+001   7.56900553E-001   4.63660600E-001   7.56928051E-001
   5.00000000E+001   7.88266642E-001   4.63842252E-001   7.88284226E-001
   5.50000000E+001   8.15198667E-001   4.63941705E-001   8.15210520E-001
   6.00000000E+001   8.37425287E-001   4.63999224E-001   8.37433297E-001
   6.50000000E+001   8.57915672E-001   4.64034048E-001   8.57921417E-001
   7.00000000E+001   8.73774797E-001   4.64055965E-001   8.73778810E-001
   7.50000000E+001   8.87921876E-001   4.64070225E-001   8.87924776E-001
   8.00000000E+001   9.00668821E-001   4.64079773E-001   9.00670973E-001
   8.50000000E+001   9.11968372E-001   4.64086330E-001   9.11969998E-001
   9.00000000E+001   9.21928465E-001   4.64090934E-001   9.21929710E-001
   9.50000000E+001   9.29906368E-001   4.64094230E-001   9.29907319E-001
   1.00000000E+002   9.37505293E-001   4.64096632E-001   9.37506036E-001
   1.05000000E+002   9.43542906E-001   4.64098411E-001   9.43543485E-001
   1.10000000E+002   9.49085425E-001   4.64099748E-001   9.49085884E-001
   1.15000000E+002   9.54322637E-001   4.64100765E-001   9.54323006E-001
   1.20000000E+002   9.59039468E-001   4.64101548E-001   9.59039767E-001
   1.25000000E+002   9.62972635E-001   4.64102158E-001   9.62972878E-001
   1.30000000E+002   9.66366271E-001   4.64102637E-001   9.66366470E-001
   1.35000000E+002   9.69730759E-001   4.64103018E-001   9.69730923E-001
   1.40000000E+002   9.72796899E-001   4.64103323E-001   9.72797037E-001
   1.45000000E+002   9.75465493E-001   4.64103568E-001   9.75465608E-001
   1.50000000E+002   9.77552204E-001   4.64103768E-001   9.77552300E-001
   1.55000000E+002   9.79913951E-001   4.64103932E-001   9.79914033E-001
   1.60000000E+002   9.82029280E-001   4.64104067E-001   9.82029350E-001
   1.65000000E+002   9.83334941E-001   4.64104179E-001   9.83335000E-001
   1.70000000E+002   9.85013300E-001   4.64104272E-001   9.85013351E-001
   1.75000000E+002   9.86560294E-001   4.64104350E-001   9.86560338E-001
   1.80000000E+002   9.87746524E-001   4.64104416E-001   9.87746562E-001
   1.85000000E+002   9.88836583E-001   4.64104471E-001   9.88836616E-001
   1.90000000E+002   9.89952139E-001   4.64104519E-001   9.89952168E-001
   1.95000000E+002   9.90982046E-001   4.64104559E-001   9.90982071E-001
   2.00000000E+002   9.91892553E-001   4.64104594E-001   9.91892575E-001
   2.05000000E+002   9.92610961E-001   4.64104624E-001   9.92610981E-001
   2.10000000E+002   9.93331643E-001   4.64104649E-001   9.93331661E-001
   2.15000000E+002   9.93892035E-001   4.64104672E-001   9.93892050E-001
   2.20000000E+002   9.94689062E-001   4.64104691E-001   9.94689076E-001
   2.25000000E+002   9.95103427E-001   4.64104708E-001   9.95103439E-001
   2.30000000E+002   9.95613091E-001   4.64104723E-001   9.95613102E-001
   2.35000000E+002   9.95984347E-001   4.64104736E-001   9.95984357E-001
   2.40000000E+002   9.96389004E-001   4.64104747E-001   9.96389013E-001
   2.45000000E+002   9.96862025E-001   4.64104758E-001   9.96862033E-001
