# ./jetvheto -in n3lo-fixed-order/H125-LHC13-R04-heft-xmur050-xmuf050-log.fxd -xQ 0.75 -out benchmarks-n3lo-smallR/H125-LHC13-R04-heft-xmur050-xmuf050-xQ075-NNLO+NNLLa.R0-1.5.res -scheme a -order 2 -ptmax 500.01 -fixed_order 2 -small-r -R0 1.5
# process = H    
# collider = pp   
# rts =  13000.000
# M   =    125.000
# muR =     62.500
# muF =     62.500
# Q   =     93.750
# p   =      5.000
# include_c1_squared =   F
# loop_mass  = none
# alphas(MZ) =    0.11800
# alphas(M) =    0.11264
# alphas(muR) =    0.12516
# Rjet =      0.400
# order = NNLL
# pdf name and set = PDF4LHC15_nnlo_mc.LHgrid,    0
# matching scheme = a
# total cross sections [nb] at LO, NLOdiff, NNLOdiff, N3LOdiff =     0.015055    0.019611    0.008998    0.001413
#----------------------------------------------------------------------
# the lines that follow give the jet-veto efficiencies as a function of pt
#         pt            matched eff      resummed eff     fixed-order eff
   2.00000000E+001   5.18138144E-001   5.63379798E-001   4.60803594E-001
   2.50000000E+001   6.02123124E-001   6.38987226E-001   5.46887027E-001
   3.00000000E+001   6.67581468E-001   6.91505908E-001   6.14137214E-001
   3.50000000E+001   7.18997420E-001   7.27679949E-001   6.67697748E-001
   4.00000000E+001   7.60012972E-001   7.52117475E-001   7.11386119E-001
   4.50000000E+001   7.93029285E-001   7.68038714E-001   7.47572136E-001
   5.00000000E+001   8.19847093E-001   7.77742342E-001   7.77943884E-001
   5.50000000E+001   8.41780942E-001   7.82921471E-001   8.03669340E-001
   6.00000000E+001   8.59774870E-001   7.84842892E-001   8.25569926E-001
   6.50000000E+001   8.74781324E-001   7.84485460E-001   8.44466421E-001
   7.00000000E+001   8.87454824E-001   7.82616315E-001   8.60904291E-001
   7.50000000E+001   8.98101850E-001   7.79834429E-001   8.75107581E-001
   8.00000000E+001   9.07305824E-001   7.76598457E-001   8.87583197E-001
   8.50000000E+001   9.15353922E-001   7.73243692E-001   8.98575401E-001
   9.00000000E+001   9.22475631E-001   7.69999005E-001   9.08294278E-001
   9.50000000E+001   9.28758165E-001   7.67003933E-001   9.16831850E-001
   1.00000000E+002   9.34434490E-001   7.64330418E-001   9.24436265E-001
   1.05000000E+002   9.39531894E-001   7.62001453E-001   9.31164894E-001
   1.10000000E+002   9.44208296E-001   7.60008149E-001   9.37208272E-001
   1.15000000E+002   9.48456153E-001   7.58323309E-001   9.42595447E-001
   1.20000000E+002   9.52366577E-001   7.56911216E-001   9.47451332E-001
   1.25000000E+002   9.55958761E-001   7.55733962E-001   9.51826691E-001
   1.30000000E+002   9.59223377E-001   7.54755398E-001   9.55739978E-001
   1.35000000E+002   9.62246385E-001   7.53942907E-001   9.59300155E-001
   1.40000000E+002   9.65025711E-001   7.53268109E-001   9.62525156E-001
   1.45000000E+002   9.67546183E-001   7.52706927E-001   9.65416341E-001
   1.50000000E+002   9.69894331E-001   7.52239259E-001   9.68073453E-001
   1.55000000E+002   9.72031987E-001   7.51848502E-001   9.70469565E-001
   1.60000000E+002   9.74018554E-001   7.51521029E-001   9.72672954E-001
   1.65000000E+002   9.75822606E-001   7.51245702E-001   9.74659615E-001
   1.70000000E+002   9.77506944E-001   7.51013430E-001   9.76498194E-001
   1.75000000E+002   9.79070982E-001   7.50816799E-001   9.78193000E-001
   1.80000000E+002   9.80490387E-001   7.50649758E-001   9.79723719E-001
   1.85000000E+002   9.81807891E-001   7.50507356E-001   9.81136260E-001
   1.90000000E+002   9.83029099E-001   7.50385541E-001   9.82438890E-001
   1.95000000E+002   9.84145791E-001   7.50280982E-001   9.83625593E-001
   2.00000000E+002   9.85180507E-001   7.50190937E-001   9.84720691E-001
   2.05000000E+002   9.86150934E-001   7.50113140E-001   9.85743353E-001
   2.10000000E+002   9.87034951E-001   7.50045715E-001   9.86672717E-001
   2.15000000E+002   9.87867812E-001   7.49987100E-001   9.87545040E-001
   2.20000000E+002   9.88641017E-001   7.49935993E-001   9.88352698E-001
   2.25000000E+002   9.89334985E-001   7.49891305E-001   9.89076840E-001
   2.30000000E+002   9.90023296E-001   7.49852123E-001   9.89791617E-001
   2.35000000E+002   9.90630209E-001   7.49817675E-001   9.90421838E-001
   2.40000000E+002   9.91206818E-001   7.49787313E-001   9.91019008E-001
   2.45000000E+002   9.91743732E-001   7.49760484E-001   9.91574107E-001
