# ./jetvheto -in n3lo-fixed-order/H125-LHC13-R04-mb-475-mt-1725-xmur100-xmuf100-log.fxd -xQ 0.75 -out benchmarks-n3lo-smallR/H125-LHC13-R04-mb-475-mt-1725-xmur100-xmuf100-xQ075-N3LO+NNLLb.R0-1.0.res -scheme b -order 2 -ptmax 500.01 -fixed_order 3 -small-r -loop-mass t+b -R0 1.0
# process = H    
# collider = pp   
# rts =  13000.000
# M   =    125.000
# muR =    125.000
# muF =    125.000
# Q   =     93.750
# p   =      5.000
# include_c1_squared =   F
# loop_mass  = t+b 
# alphas(MZ) =    0.11800
# alphas(M) =    0.11264
# alphas(muR) =    0.11264
# Rjet =      0.400
# order = NNLL
# pdf name and set = PDF4LHC15_nnlo_mc.LHgrid,    0
# matching scheme = b
# total cross sections [nb] at LO, NLOdiff, NNLOdiff, N3LOdiff =     0.012292    0.016994    0.010146    0.003834
#----------------------------------------------------------------------
# the lines that follow give the jet-veto efficiencies as a function of pt
#         pt            matched eff      resummed eff     fixed-order eff
   2.00000000E+001   4.33353242E-001   5.30119262E-001   3.97974970E-001
   2.50000000E+001   5.19924037E-001   6.12353166E-001   4.91794485E-001
   3.00000000E+001   5.93960583E-001   6.70630395E-001   5.70830727E-001
   3.50000000E+001   6.52481339E-001   7.11614160E-001   6.32372721E-001
   4.00000000E+001   7.00025640E-001   7.40028948E-001   6.82195687E-001
   4.50000000E+001   7.38808261E-001   7.59233229E-001   7.22903550E-001
   5.00000000E+001   7.71675340E-001   7.71636342E-001   7.57489684E-001
   5.50000000E+001   7.99678957E-001   7.79022991E-001   7.87062825E-001
   6.00000000E+001   8.23212174E-001   7.82747243E-001   8.12064423E-001
   6.50000000E+001   8.44205425E-001   7.83860796E-001   8.34389891E-001
   7.00000000E+001   8.61826028E-001   7.83189085E-001   8.53266196E-001
   7.50000000E+001   8.76293584E-001   7.81377257E-001   8.68915734E-001
   8.00000000E+001   8.89040143E-001   7.78922093E-001   8.82724838E-001
   8.50000000E+001   9.00554960E-001   7.76191629E-001   8.95173737E-001
   9.00000000E+001   9.10402311E-001   7.73443579E-001   9.05851124E-001
   9.50000000E+001   9.19445560E-001   7.70842919E-001   9.15604325E-001
   1.00000000E+002   9.26978088E-001   7.68482216E-001   9.23755321E-001
   1.05000000E+002   9.33796635E-001   7.66401364E-001   9.31095317E-001
   1.10000000E+002   9.39941092E-001   7.64605116E-001   9.37676052E-001
   1.15000000E+002   9.45489806E-001   7.63077213E-001   9.43589165E-001
   1.20000000E+002   9.50287530E-001   7.61790487E-001   9.48691534E-001
   1.25000000E+002   9.54507334E-001   7.60713843E-001   9.53165332E-001
   1.30000000E+002   9.58745461E-001   7.59816358E-001   9.57610782E-001
   1.35000000E+002   9.62489336E-001   7.59069496E-001   9.61527659E-001
   1.40000000E+002   9.65627659E-001   7.58448086E-001   9.64811168E-001
   1.45000000E+002   9.68656855E-001   7.57930553E-001   9.67960469E-001
   1.50000000E+002   9.71224883E-001   7.57498756E-001   9.70629444E-001
   1.55000000E+002   9.74008901E-001   7.57137625E-001   9.73496621E-001
   1.60000000E+002   9.75879913E-001   7.56834744E-001   9.75439366E-001
   1.65000000E+002   9.77913894E-001   7.56579927E-001   9.77532916E-001
   1.70000000E+002   9.79692558E-001   7.56364842E-001   9.79362104E-001
   1.75000000E+002   9.81430344E-001   7.56182680E-001   9.81142536E-001
   1.80000000E+002   9.83017078E-001   7.56027870E-001   9.82765601E-001
   1.85000000E+002   9.84452852E-001   7.55895855E-001   9.84232456E-001
   1.90000000E+002   9.85453328E-001   7.55782893E-001   9.85259944E-001
   1.95000000E+002   9.86751121E-001   7.55685912E-001   9.86580536E-001
   2.00000000E+002   9.87852351E-001   7.55602376E-001   9.87701531E-001
   2.05000000E+002   9.88796494E-001   7.55530191E-001   9.88662839E-001
   2.10000000E+002   9.89649997E-001   7.55467620E-001   9.89531244E-001
   2.15000000E+002   9.90585614E-001   7.55413217E-001   9.90479731E-001
   2.20000000E+002   9.91268024E-001   7.55365779E-001   9.91173490E-001
   2.25000000E+002   9.91986686E-001   7.55324295E-001   9.91902037E-001
   2.30000000E+002   9.92654282E-001   7.55287918E-001   9.92578309E-001
   2.35000000E+002   9.93270823E-001   7.55255935E-001   9.93202487E-001
   2.40000000E+002   9.93689684E-001   7.55227743E-001   9.93628140E-001
   2.45000000E+002   9.94255251E-001   7.55202830E-001   9.94199651E-001
