# ./jetvheto -in n3lo-fixed-order/H125-LHC13-R04-mb-475-mt-1725-xmur100-xmuf100-log.fxd -xQ 0.25 -out benchmarks-n3lo-smallR/H125-LHC13-R04-mb-475-mt-1725-xmur100-xmuf100-xQ025-N3LO+NNLLa.R0-1.5.res -scheme a -order 2 -ptmax 500.01 -fixed_order 3 -small-r -loop-mass t+b -R0 1.5
# process = H    
# collider = pp   
# rts =  13000.000
# M   =    125.000
# muR =    125.000
# muF =    125.000
# Q   =     31.250
# p   =      5.000
# include_c1_squared =   F
# loop_mass  = t+b 
# alphas(MZ) =    0.11800
# alphas(M) =    0.11264
# alphas(muR) =    0.11264
# Rjet =      0.400
# order = NNLL
# pdf name and set = PDF4LHC15_nnlo_mc.LHgrid,    0
# matching scheme = a
# total cross sections [nb] at LO, NLOdiff, NNLOdiff, N3LOdiff =     0.012292    0.016994    0.010146    0.003834
#----------------------------------------------------------------------
# the lines that follow give the jet-veto efficiencies as a function of pt
#         pt            matched eff      resummed eff     fixed-order eff
   2.00000000E+001   4.48433625E-001   5.22165316E-001   4.51319368E-001
   2.50000000E+001   5.34428897E-001   5.91717787E-001   5.36825698E-001
   3.00000000E+001   6.06951708E-001   6.32612845E-001   6.08858675E-001
   3.50000000E+001   6.63707958E-001   6.54863633E-001   6.64947540E-001
   4.00000000E+001   7.09570184E-001   6.66550383E-001   7.10355778E-001
   4.50000000E+001   7.46957342E-001   6.72726204E-001   7.47456588E-001
   5.00000000E+001   7.78649609E-001   6.76090100E-001   7.78978104E-001
   5.50000000E+001   8.05707837E-001   6.77996019E-001   8.05930820E-001
   6.00000000E+001   8.28563238E-001   6.79120348E-001   8.28717070E-001
   6.50000000E+001   8.48954435E-001   6.79809198E-001   8.49064316E-001
   7.00000000E+001   8.66188620E-001   6.80245952E-001   8.66268025E-001
   7.50000000E+001   8.80473115E-001   6.80531464E-001   8.80530885E-001
   8.00000000E+001   8.93073562E-001   6.80723248E-001   8.93116387E-001
   8.50000000E+001   9.04429768E-001   6.80855224E-001   9.04462211E-001
   9.00000000E+001   9.14168713E-001   6.80948019E-001   9.14193494E-001
   9.50000000E+001   9.23063206E-001   6.81014537E-001   9.23082480E-001
   1.00000000E+002   9.30496170E-001   6.81063053E-001   9.30511231E-001
   1.05000000E+002   9.37188933E-001   6.81098997E-001   9.37200842E-001
   1.10000000E+002   9.43188942E-001   6.81126008E-001   9.43198469E-001
   1.15000000E+002   9.48579943E-001   6.81146571E-001   9.48587632E-001
   1.20000000E+002   9.53231641E-001   6.81162411E-001   9.53237889E-001
   1.25000000E+002   9.57310165E-001   6.81174746E-001   9.57315271E-001
   1.30000000E+002   9.61362589E-001   6.81184447E-001   9.61366818E-001
   1.35000000E+002   9.64933107E-001   6.81192149E-001   9.64936627E-001
   1.40000000E+002   9.67926250E-001   6.81198316E-001   9.67929190E-001
   1.45000000E+002   9.70796962E-001   6.81203292E-001   9.70799436E-001
   1.50000000E+002   9.73229827E-001   6.81207338E-001   9.73231918E-001
   1.55000000E+002   9.75843254E-001   6.81210650E-001   9.75845039E-001
   1.60000000E+002   9.77614123E-001   6.81213380E-001   9.77615642E-001
   1.65000000E+002   9.79522381E-001   6.81215642E-001   9.79523686E-001
   1.70000000E+002   9.81189669E-001   6.81217528E-001   9.81190793E-001
   1.75000000E+002   9.82812489E-001   6.81219109E-001   9.82813463E-001
   1.80000000E+002   9.84291864E-001   6.81220440E-001   9.84292712E-001
   1.85000000E+002   9.85628852E-001   6.81221568E-001   9.85629591E-001
   1.90000000E+002   9.86565389E-001   6.81222526E-001   9.86566035E-001
   1.95000000E+002   9.87769044E-001   6.81223344E-001   9.87769612E-001
   2.00000000E+002   9.88790777E-001   6.81224046E-001   9.88791277E-001
   2.05000000E+002   9.89666963E-001   6.81224650E-001   9.89667405E-001
   2.10000000E+002   9.90458471E-001   6.81225171E-001   9.90458863E-001
   2.15000000E+002   9.91322956E-001   6.81225624E-001   9.91323305E-001
   2.20000000E+002   9.91955281E-001   6.81226017E-001   9.91955592E-001
   2.25000000E+002   9.92619306E-001   6.81226360E-001   9.92619584E-001
   2.30000000E+002   9.93235683E-001   6.81226660E-001   9.93235932E-001
   2.35000000E+002   9.93804579E-001   6.81226924E-001   9.93804803E-001
   2.40000000E+002   9.94192538E-001   6.81227156E-001   9.94192740E-001
   2.45000000E+002   9.94713429E-001   6.81227360E-001   9.94713610E-001
