# ./jetvheto -in n3lo-fixed-order/H125-LHC13-R04-mb-475-mt-1725-xmur200-xmuf100-log.fxd -xQ 0.5 -out benchmarks-n3lo-smallR/H125-LHC13-R04-mb-475-mt-1725-xmur200-xmuf100-xQ050-N3LO+NNLLa.R0-2.0.res -scheme a -order 2 -ptmax 500.01 -fixed_order 3 -small-r -loop-mass t+b -R0 2.0
# process = H    
# collider = pp   
# rts =  13000.000
# M   =    125.000
# muR =    250.000
# muF =    125.000
# Q   =     62.500
# p   =      5.000
# include_c1_squared =   F
# loop_mass  = t+b 
# alphas(MZ) =    0.11800
# alphas(M) =    0.11264
# alphas(muR) =    0.10244
# Rjet =      0.400
# order = NNLL
# pdf name and set = PDF4LHC15_nnlo_mc.LHgrid,    0
# matching scheme = a
# total cross sections [nb] at LO, NLOdiff, NNLOdiff, N3LOdiff =     0.010243    0.014468    0.010526    0.005600
#----------------------------------------------------------------------
# the lines that follow give the jet-veto efficiencies as a function of pt
#         pt            matched eff      resummed eff     fixed-order eff
   2.00000000E+001   4.59270637E-001   5.21393166E-001   4.73494745E-001
   2.50000000E+001   5.46623229E-001   6.03562658E-001   5.56567496E-001
   3.00000000E+001   6.18455792E-001   6.62185493E-001   6.24602117E-001
   3.50000000E+001   6.75154293E-001   7.03522960E-001   6.77949159E-001
   4.00000000E+001   7.20697625E-001   7.32157406E-001   7.21153727E-001
   4.50000000E+001   7.57545234E-001   7.51517358E-001   7.56587199E-001
   5.00000000E+001   7.88211647E-001   7.64234305E-001   7.86572074E-001
   5.50000000E+001   8.13951459E-001   7.72343768E-001   8.12114650E-001
   6.00000000E+001   8.35574234E-001   7.77387917E-001   8.33814754E-001
   6.50000000E+001   8.54537232E-001   7.80477242E-001   8.52989485E-001
   7.00000000E+001   8.70616410E-001   7.82362184E-001   8.69317384E-001
   7.50000000E+001   8.84123343E-001   7.83521226E-001   8.83062188E-001
   8.00000000E+001   8.96041479E-001   7.84246192E-001   8.95187770E-001
   8.50000000E+001   9.06695338E-001   7.84710216E-001   9.06013600E-001
   9.00000000E+001   9.15957955E-001   7.85015093E-001   9.15414143E-001
   9.50000000E+001   9.24337092E-001   7.85220848E-001   9.23902665E-001
   1.00000000E+002   9.31488503E-001   7.85363340E-001   9.31140034E-001
   1.05000000E+002   9.37930072E-001   7.85464415E-001   9.37649125E-001
   1.10000000E+002   9.43683264E-001   7.85537684E-001   9.43455481E-001
   1.15000000E+002   9.48874635E-001   7.85591838E-001   9.48688803E-001
   1.20000000E+002   9.53394967E-001   7.85632562E-001   9.53242433E-001
   1.25000000E+002   9.57419818E-001   7.85663658E-001   9.57293828E-001
   1.30000000E+002   9.61294980E-001   7.85687730E-001   9.61190307E-001
   1.35000000E+002   9.64744781E-001   7.85706591E-001   9.64657308E-001
   1.40000000E+002   9.67704290E-001   7.85721532E-001   9.67630788E-001
   1.45000000E+002   9.70508767E-001   7.85733485E-001   9.70446670E-001
   1.50000000E+002   9.72929470E-001   7.85743134E-001   9.72876747E-001
   1.55000000E+002   9.75408831E-001   7.85750986E-001   9.75363852E-001
   1.60000000E+002   9.77260093E-001   7.85757423E-001   9.77221540E-001
   1.65000000E+002   9.79144804E-001   7.85762738E-001   9.79111617E-001
   1.70000000E+002   9.80818686E-001   7.85767153E-001   9.80789999E-001
   1.75000000E+002   9.82408984E-001   7.85770843E-001   9.82384090E-001
   1.80000000E+002   9.83863122E-001   7.85773944E-001   9.83841438E-001
   1.85000000E+002   9.85182993E-001   7.85776563E-001   9.85164039E-001
   1.90000000E+002   9.86203924E-001   7.85778786E-001   9.86187297E-001
   1.95000000E+002   9.87373853E-001   7.85780682E-001   9.87359222E-001
   2.00000000E+002   9.88388914E-001   7.85782305E-001   9.88375999E-001
   2.05000000E+002   9.89283661E-001   7.85783700E-001   9.89272227E-001
   2.10000000E+002   9.90095391E-001   7.85784904E-001   9.90085240E-001
   2.15000000E+002   9.90927067E-001   7.85785947E-001   9.90918031E-001
   2.20000000E+002   9.91590528E-001   7.85786853E-001   9.91582463E-001
   2.25000000E+002   9.92254142E-001   7.85787643E-001   9.92246925E-001
   2.30000000E+002   9.92868821E-001   7.85788334E-001   9.92862349E-001
   2.35000000E+002   9.93438360E-001   7.85788941E-001   9.93432542E-001
   2.40000000E+002   9.93869498E-001   7.85789474E-001   9.93864257E-001
   2.45000000E+002   9.94379003E-001   7.85789945E-001   9.94374272E-001
