# ./jetvheto -in n3lo-fixed-order/H125-LHC13-R04-mb-475-mt-1725-xmur100-xmuf100-log.fxd -xQ 0.125 -out benchmarks-n3lo-smallR/H125-LHC13-R04-mb-475-mt-1725-xmur100-xmuf100-xQ125-NNLO+NNLLa.R0-2.0.res -scheme a -order 2 -ptmax 500.01 -fixed_order 2 -small-r -loop-mass t+b -R0 2.0
# process = H    
# collider = pp   
# rts =  13000.000
# M   =    125.000
# muR =    125.000
# muF =    125.000
# Q   =     15.625
# p   =      5.000
# include_c1_squared =   F
# loop_mass  = t+b 
# alphas(MZ) =    0.11800
# alphas(M) =    0.11264
# alphas(muR) =    0.11264
# Rjet =      0.400
# order = NNLL
# pdf name and set = PDF4LHC15_nnlo_mc.LHgrid,    0
# matching scheme = a
# total cross sections [nb] at LO, NLOdiff, NNLOdiff, N3LOdiff =     0.012292    0.016994    0.010146    0.003834
#----------------------------------------------------------------------
# the lines that follow give the jet-veto efficiencies as a function of pt
#         pt            matched eff      resummed eff     fixed-order eff
   2.00000000E+001   4.90829105E-001   4.99133910E-001   4.93150502E-001
   2.50000000E+001   5.73654343E-001   5.14212124E-001   5.75024850E-001
   3.00000000E+001   6.37545977E-001   5.19116742E-001   6.38301171E-001
   3.50000000E+001   6.88374963E-001   5.20953478E-001   6.88801162E-001
   4.00000000E+001   7.29549871E-001   5.21734801E-001   7.29800784E-001
   4.50000000E+001   7.63559944E-001   5.22103260E-001   7.63713984E-001
   5.00000000E+001   7.92057271E-001   5.22291959E-001   7.92155543E-001
   5.50000000E+001   8.16103303E-001   5.22395267E-001   8.16168137E-001
   6.00000000E+001   8.36753565E-001   5.22455014E-001   8.36797648E-001
   6.50000000E+001   8.54553334E-001   5.22491187E-001   8.54584097E-001
   7.00000000E+001   8.69943642E-001   5.22513953E-001   8.69965602E-001
   7.50000000E+001   8.83338568E-001   5.22528765E-001   8.83354565E-001
   8.00000000E+001   8.95138541E-001   5.22538683E-001   8.95150407E-001
   8.50000000E+001   9.05437557E-001   5.22545494E-001   9.05446499E-001
   9.00000000E+001   9.14624049E-001   5.22550275E-001   9.14630889E-001
   9.50000000E+001   9.22703489E-001   5.22553700E-001   9.22708788E-001
   1.00000000E+002   9.29889074E-001   5.22556195E-001   9.29893229E-001
   1.05000000E+002   9.36327766E-001   5.22558043E-001   9.36331059E-001
   1.10000000E+002   9.42005770E-001   5.22559431E-001   9.42008406E-001
   1.15000000E+002   9.47153819E-001   5.22560487E-001   9.47155949E-001
   1.20000000E+002   9.51707990E-001   5.22561301E-001   9.51709725E-001
   1.25000000E+002   9.55876211E-001   5.22561934E-001   9.55877636E-001
   1.30000000E+002   9.59619562E-001   5.22562432E-001   9.59620741E-001
   1.35000000E+002   9.63020781E-001   5.22562828E-001   9.63021762E-001
   1.40000000E+002   9.66067877E-001   5.22563144E-001   9.66068699E-001
   1.45000000E+002   9.68886176E-001   5.22563400E-001   9.68886869E-001
   1.50000000E+002   9.71398609E-001   5.22563607E-001   9.71399196E-001
   1.55000000E+002   9.73721450E-001   5.22563777E-001   9.73721950E-001
   1.60000000E+002   9.75822178E-001   5.22563917E-001   9.75822606E-001
   1.65000000E+002   9.77740860E-001   5.22564033E-001   9.77741229E-001
   1.70000000E+002   9.79500706E-001   5.22564130E-001   9.79501024E-001
   1.75000000E+002   9.81089612E-001   5.22564211E-001   9.81089888E-001
   1.80000000E+002   9.82552052E-001   5.22564280E-001   9.82552292E-001
   1.85000000E+002   9.83887334E-001   5.22564337E-001   9.83887543E-001
   1.90000000E+002   9.85116303E-001   5.22564387E-001   9.85116487E-001
   1.95000000E+002   9.86263072E-001   5.22564429E-001   9.86263234E-001
   2.00000000E+002   9.87300791E-001   5.22564465E-001   9.87300933E-001
   2.05000000E+002   9.88264932E-001   5.22564496E-001   9.88265058E-001
   2.10000000E+002   9.89144478E-001   5.22564522E-001   9.89144590E-001
   2.15000000E+002   9.89936988E-001   5.22564546E-001   9.89937088E-001
   2.20000000E+002   9.90684826E-001   5.22564566E-001   9.90684915E-001
   2.25000000E+002   9.91368684E-001   5.22564583E-001   9.91368764E-001
   2.30000000E+002   9.91999229E-001   5.22564599E-001   9.91999301E-001
   2.35000000E+002   9.92589082E-001   5.22564612E-001   9.92589146E-001
   2.40000000E+002   9.93118726E-001   5.22564624E-001   9.93118784E-001
   2.45000000E+002   9.93620995E-001   5.22564635E-001   9.93621047E-001
