# ./jetvheto -in n3lo-fixed-order/H125-LHC13-R04-heft-xmur050-xmuf050-log.fxd -xQ 0.50 -out benchmarks-n3lo-smallR/H125-LHC13-R04-heft-xmur050-xmuf050-xQ050-NNLO+NNLLb.R0-1.5.res -scheme b -order 2 -ptmax 500.01 -fixed_order 2 -small-r -R0 1.5
# process = H    
# collider = pp   
# rts =  13000.000
# M   =    125.000
# muR =     62.500
# muF =     62.500
# Q   =     62.500
# p   =      5.000
# include_c1_squared =   F
# loop_mass  = none
# alphas(MZ) =    0.11800
# alphas(M) =    0.11264
# alphas(muR) =    0.12516
# Rjet =      0.400
# order = NNLL
# pdf name and set = PDF4LHC15_nnlo_mc.LHgrid,    0
# matching scheme = b
# total cross sections [nb] at LO, NLOdiff, NNLOdiff, N3LOdiff =     0.015055    0.019611    0.008998    0.001413
#----------------------------------------------------------------------
# the lines that follow give the jet-veto efficiencies as a function of pt
#         pt            matched eff      resummed eff     fixed-order eff
   2.00000000E+001   4.23841579E-001   5.06275479E-001   3.20844325E-001
   2.50000000E+001   5.04371259E-001   5.82042627E-001   4.29272444E-001
   3.00000000E+001   5.69936994E-001   6.35422842E-001   5.13978769E-001
   3.50000000E+001   6.23666020E-001   6.72582551E-001   5.81442017E-001
   4.00000000E+001   6.68503627E-001   6.97967578E-001   6.36470582E-001
   4.50000000E+001   7.06357114E-001   7.14841594E-001   6.82049408E-001
   5.00000000E+001   7.38702000E-001   7.25691021E-001   7.20304754E-001
   5.50000000E+001   7.66592886E-001   7.32427806E-001   7.52707770E-001
   6.00000000E+001   7.90754563E-001   7.36483016E-001   7.80293093E-001
   6.50000000E+001   8.11980603E-001   7.38867905E-001   8.04094553E-001
   7.00000000E+001   8.30760691E-001   7.40253741E-001   8.24799203E-001
   7.50000000E+001   8.47218792E-001   7.41059048E-001   8.42689242E-001
   8.00000000E+001   8.61867938E-001   7.41532040E-001   8.58403155E-001
   8.50000000E+001   8.74919959E-001   7.41815064E-001   8.72248607E-001
   9.00000000E+001   8.86567507E-001   7.41988664E-001   8.84490214E-001
   9.50000000E+001   8.96873610E-001   7.42098166E-001   8.95243884E-001
   1.00000000E+002   9.06111995E-001   7.42169273E-001   9.04822178E-001
   1.05000000E+002   9.14327058E-001   7.42216794E-001   9.13297358E-001
   1.10000000E+002   9.21738322E-001   7.42249438E-001   9.20909416E-001
   1.15000000E+002   9.28367515E-001   7.42272442E-001   9.27694941E-001
   1.20000000E+002   9.34361148E-001   7.42289036E-001   9.33811268E-001
   1.25000000E+002   9.39775120E-001   7.42301261E-001   9.39322340E-001
   1.30000000E+002   9.44626761E-001   7.42310439E-001   9.44251399E-001
   1.35000000E+002   9.49048850E-001   7.42317445E-001   9.48735691E-001
   1.40000000E+002   9.53060645E-001   7.42322874E-001   9.52797807E-001
   1.45000000E+002   9.56661301E-001   7.42327137E-001   9.56439457E-001
   1.50000000E+002   9.59974521E-001   7.42330525E-001   9.59786275E-001
   1.55000000E+002   9.62964884E-001   7.42333245E-001   9.62804347E-001
   1.60000000E+002   9.65717233E-001   7.42335451E-001   9.65579670E-001
   1.65000000E+002   9.68200412E-001   7.42337255E-001   9.68082008E-001
   1.70000000E+002   9.70500176E-001   7.42338741E-001   9.70397828E-001
   1.75000000E+002   9.72621379E-001   7.42339975E-001   9.72532555E-001
   1.80000000E+002   9.74537985E-001   7.42341006E-001   9.74460602E-001
   1.85000000E+002   9.76307455E-001   7.42341872E-001   9.76239797E-001
   1.90000000E+002   9.77939911E-001   7.42342604E-001   9.77880551E-001
   1.95000000E+002   9.79427535E-001   7.42343226E-001   9.79375286E-001
   2.00000000E+002   9.80800774E-001   7.42343757E-001   9.80754640E-001
   2.05000000E+002   9.82083609E-001   7.42344212E-001   9.82042753E-001
   2.10000000E+002   9.83249637E-001   7.42344604E-001   9.83213352E-001
   2.15000000E+002   9.84344417E-001   7.42344943E-001   9.84312105E-001
   2.20000000E+002   9.85358255E-001   7.42345237E-001   9.85329407E-001
   2.25000000E+002   9.86267334E-001   7.42345492E-001   9.86241514E-001
   2.30000000E+002   9.87164991E-001   7.42345716E-001   9.87141826E-001
   2.35000000E+002   9.87956462E-001   7.42345912E-001   9.87935633E-001
   2.40000000E+002   9.88706581E-001   7.42346084E-001   9.88687810E-001
   2.45000000E+002   9.89403947E-001   7.42346235E-001   9.89386996E-001
