# ./jetvheto -in n3lo-fixed-order/H125-LHC13-R04-mb-475-mt-1725-xmur100-xmuf200-log.fxd -xQ 0.25 -out benchmarks-n3lo-smallR/H125-LHC13-R04-mb-475-mt-1725-xmur100-xmuf200-xQ025-NNLO+NNLLa.R0-2.0.res -scheme a -order 2 -ptmax 500.01 -fixed_order 2 -small-r -loop-mass t+b -R0 2.0
# process = H    
# collider = pp   
# rts =  13000.000
# M   =    125.000
# muR =    125.000
# muF =    250.000
# Q   =     31.250
# p   =      5.000
# include_c1_squared =   F
# loop_mass  = t+b 
# alphas(MZ) =    0.11800
# alphas(M) =    0.11264
# alphas(muR) =    0.11264
# Rjet =      0.400
# order = NNLL
# pdf name and set = PDF4LHC15_nnlo_mc.LHgrid,    0
# matching scheme = a
# total cross sections [nb] at LO, NLOdiff, NNLOdiff, N3LOdiff =     0.012791    0.017144    0.009991    0.003297
#----------------------------------------------------------------------
# the lines that follow give the jet-veto efficiencies as a function of pt
#         pt            matched eff      resummed eff     fixed-order eff
   2.00000000E+001   4.86987594E-001   5.34519623E-001   4.96990142E-001
   2.50000000E+001   5.72488051E-001   6.02737394E-001   5.79781046E-001
   3.00000000E+001   6.38531711E-001   6.42588525E-001   6.43205554E-001
   3.50000000E+001   6.90674276E-001   6.64173857E-001   6.93573535E-001
   4.00000000E+001   7.32577281E-001   6.75478383E-001   7.34390203E-001
   4.50000000E+001   7.66949087E-001   6.81441996E-001   7.68110951E-001
   5.00000000E+001   7.95494346E-001   6.84687071E-001   7.96256890E-001
   5.50000000E+001   8.19538339E-001   6.86524618E-001   8.20052497E-001
   6.00000000E+001   8.39891476E-001   6.87608254E-001   8.40246247E-001
   6.50000000E+001   8.57402599E-001   6.88272039E-001   8.57652920E-001
   7.00000000E+001   8.72588329E-001   6.88692847E-001   8.72768673E-001
   7.50000000E+001   8.85746105E-001   6.88967914E-001   8.85878372E-001
   8.00000000E+001   8.97311727E-001   6.89152671E-001   8.97410399E-001
   8.50000000E+001   9.07399758E-001   6.89279806E-001   9.07474445E-001
   9.00000000E+001   9.16323524E-001   6.89369197E-001   9.16380866E-001
   9.50000000E+001   9.24193094E-001   6.89433272E-001   9.24237657E-001
   1.00000000E+002   9.31128623E-001   6.89480006E-001   9.31163638E-001
   1.05000000E+002   9.37386718E-001   6.89514630E-001   9.37414533E-001
   1.10000000E+002   9.42954751E-001   6.89540649E-001   9.42977060E-001
   1.15000000E+002   9.47943671E-001   6.89560456E-001   9.47961719E-001
   1.20000000E+002   9.52414588E-001   6.89575713E-001   9.52429312E-001
   1.25000000E+002   9.56419207E-001   6.89587595E-001   9.56431308E-001
   1.30000000E+002   9.60030327E-001   6.89596940E-001   9.60040343E-001
   1.35000000E+002   9.63326559E-001   6.89604359E-001   9.63334907E-001
   1.40000000E+002   9.66293094E-001   6.89610298E-001   9.66300093E-001
   1.45000000E+002   9.68978760E-001   6.89615092E-001   9.68984662E-001
   1.50000000E+002   9.71427828E-001   6.89618989E-001   9.71432833E-001
   1.55000000E+002   9.73646493E-001   6.89622180E-001   9.73650757E-001
   1.60000000E+002   9.75693502E-001   6.89624808E-001   9.75697154E-001
   1.65000000E+002   9.77556772E-001   6.89626988E-001   9.77559914E-001
   1.70000000E+002   9.79251969E-001   6.89628804E-001   9.79254684E-001
   1.75000000E+002   9.80775716E-001   6.89630327E-001   9.80778070E-001
   1.80000000E+002   9.82200185E-001   6.89631610E-001   9.82202234E-001
   1.85000000E+002   9.83509730E-001   6.89632695E-001   9.83511521E-001
   1.90000000E+002   9.84691789E-001   6.89633619E-001   9.84693360E-001
   1.95000000E+002   9.85786611E-001   6.89634407E-001   9.85787993E-001
   2.00000000E+002   9.86783971E-001   6.89635083E-001   9.86785191E-001
   2.05000000E+002   9.87711150E-001   6.89635664E-001   9.87712229E-001
   2.10000000E+002   9.88568793E-001   6.89636167E-001   9.88569752E-001
   2.15000000E+002   9.89359540E-001   6.89636602E-001   9.89360394E-001
   2.20000000E+002   9.90084552E-001   6.89636981E-001   9.90085314E-001
   2.25000000E+002   9.90750043E-001   6.89637312E-001   9.90750725E-001
   2.30000000E+002   9.91376492E-001   6.89637601E-001   9.91377103E-001
   2.35000000E+002   9.91960204E-001   6.89637855E-001   9.91960753E-001
   2.40000000E+002   9.92474710E-001   6.89638078E-001   9.92475205E-001
   2.45000000E+002   9.92970561E-001   6.89638275E-001   9.92971008E-001
