# ./jetvheto -in n3lo-fixed-order/H125-LHC13-R04-mb-0-mt-1725-xmur025-xmuf025-log.fxd -xQ 0.5 -out benchmarks-n3lo-smallR/H125-LHC13-R04-mb-0-mt-1725-xmur025-xmuf025-xQ050-N3LO+NNLLb.R0-1.0.res -scheme b -order 2 -ptmax 500.01 -small-r -fixed_order 3 -loop-mass t -R0 1.0
# process = H    
# collider = pp   
# rts =  13000.000
# M   =    125.000
# muR =     31.250
# muF =     31.250
# Q   =     62.500
# p   =      5.000
# include_c1_squared =   F
# loop_mass  = t   
# alphas(MZ) =    0.11800
# alphas(M) =    0.11264
# alphas(muR) =    0.14091
# Rjet =      0.400
# order = NNLL
# pdf name and set = PDF4LHC15_nnlo_mc.LHgrid,    0
# matching scheme = b
# total cross sections [nb] at LO, NLOdiff, NNLOdiff, N3LOdiff =     0.018140    0.025356    0.006043   -0.002471
#----------------------------------------------------------------------
# the lines that follow give the jet-veto efficiencies as a function of pt
#         pt            matched eff      resummed eff     fixed-order eff
   2.00000000E+001   4.92041136E-001   4.92981461E-001   4.87197444E-001
   2.50000000E+001   5.80260646E-001   5.62428647E-001   5.72808377E-001
   3.00000000E+001   6.48376262E-001   6.10693684E-001   6.40033654E-001
   3.50000000E+001   7.01819124E-001   6.43796177E-001   6.93667740E-001
   4.00000000E+001   7.45514709E-001   6.66047173E-001   7.38265029E-001
   4.50000000E+001   7.81997644E-001   6.80554256E-001   7.75885549E-001
   5.00000000E+001   8.11958338E-001   6.89650263E-001   8.06967537E-001
   5.50000000E+001   8.38467730E-001   6.95113053E-001   8.34514649E-001
   6.00000000E+001   8.59761334E-001   6.98255770E-001   8.56658691E-001
   6.50000000E+001   8.75913775E-001   6.99994184E-001   8.73491663E-001
   7.00000000E+001   8.91953673E-001   7.00924124E-001   8.90085568E-001
   7.50000000E+001   9.05544176E-001   7.01407565E-001   9.04105497E-001
   8.00000000E+001   9.16340541E-001   7.01652210E-001   9.15225465E-001
   8.50000000E+001   9.26624778E-001   7.01771945E-001   9.25758034E-001
   9.00000000E+001   9.35621864E-001   7.01827486E-001   9.34943752E-001
   9.50000000E+001   9.41388027E-001   7.01850612E-001   9.40852628E-001
   1.00000000E+002   9.49000287E-001   7.01857765E-001   9.48575677E-001
   1.05000000E+002   9.54154300E-001   7.01857371E-001   9.53814240E-001
   1.10000000E+002   9.60046587E-001   7.01853703E-001   9.59772663E-001
   1.15000000E+002   9.64941026E-001   7.01848886E-001   9.64718601E-001
   1.20000000E+002   9.68396407E-001   7.01843944E-001   9.68214412E-001
   1.25000000E+002   9.71282602E-001   7.01839333E-001   9.71132765E-001
   1.30000000E+002   9.74643703E-001   7.01835229E-001   9.74519594E-001
   1.35000000E+002   9.77202003E-001   7.01831666E-001   9.77098521E-001
   1.40000000E+002   9.79726545E-001   7.01828617E-001   9.79639817E-001
   1.45000000E+002   9.82045140E-001   7.01826027E-001   9.81972039E-001
   1.50000000E+002   9.83925945E-001   7.01823837E-001   9.83864021E-001
   1.55000000E+002   9.85671644E-001   7.01821986E-001   9.85618934E-001
   1.60000000E+002   9.87745931E-001   7.01820422E-001   9.87700872E-001
   1.65000000E+002   9.88993273E-001   7.01819099E-001   9.88954556E-001
   1.70000000E+002   9.89916489E-001   7.01817977E-001   9.89883087E-001
   1.75000000E+002   9.91421322E-001   7.01817023E-001   9.91392403E-001
   1.80000000E+002   9.92156110E-001   7.01816211E-001   9.92130965E-001
   1.85000000E+002   9.93274335E-001   7.01815516E-001   9.93252407E-001
   1.90000000E+002   9.94014144E-001   7.01814921E-001   9.93994946E-001
   1.95000000E+002   9.94954253E-001   7.01814409E-001   9.94937393E-001
   2.00000000E+002   9.95447991E-001   7.01813968E-001   9.95433136E-001
   2.05000000E+002   9.95982123E-001   7.01813586E-001   9.95968995E-001
   2.10000000E+002   9.96462134E-001   7.01813255E-001   9.96450497E-001
   2.15000000E+002   9.97152736E-001   7.01812967E-001   9.97142399E-001
   2.20000000E+002   9.97485361E-001   7.01812715E-001   9.97476149E-001
   2.25000000E+002   9.98028927E-001   7.01812496E-001   9.98020700E-001
   2.30000000E+002   9.98321629E-001   7.01812303E-001   9.98314264E-001
   2.35000000E+002   9.98434815E-001   7.01812133E-001   9.98428204E-001
   2.40000000E+002   9.98841636E-001   7.01811983E-001   9.98835691E-001
   2.45000000E+002   9.99147503E-001   7.01811851E-001   9.99142145E-001
