# ./jetvheto -in n3lo-fixed-order/H125-LHC13-R04-mb-475-mt-1725-xmur100-xmuf050-log.fxd -xQ 0.0625 -out benchmarks-n3lo-smallR/H125-LHC13-R04-mb-475-mt-1725-xmur100-xmuf050-xQ0625-N3LO+NNLLa.R0-0.5.res -scheme a -order 2 -ptmax 500.01 -fixed_order 3 -small-r -loop-mass t+b -R0 0.5
# process = H    
# collider = pp   
# rts =  13000.000
# M   =    125.000
# muR =    125.000
# muF =     62.500
# Q   =      7.812
# p   =      5.000
# include_c1_squared =   F
# loop_mass  = t+b 
# alphas(MZ) =    0.11800
# alphas(M) =    0.11264
# alphas(muR) =    0.11264
# Rjet =      0.400
# order = NNLL
# pdf name and set = PDF4LHC15_nnlo_mc.LHgrid,    0
# matching scheme = a
# total cross sections [nb] at LO, NLOdiff, NNLOdiff, N3LOdiff =     0.011575    0.016866    0.010424    0.004163
#----------------------------------------------------------------------
# the lines that follow give the jet-veto efficiencies as a function of pt
#         pt            matched eff      resummed eff     fixed-order eff
   2.00000000E+001   4.53506603E-001   2.67114319E-001   4.53573922E-001
   2.50000000E+001   5.37982284E-001   2.67609264E-001   5.38019533E-001
   3.00000000E+001   6.08063178E-001   2.67754206E-001   6.08084402E-001
   3.50000000E+001   6.64080765E-001   2.67806609E-001   6.64092911E-001
   4.00000000E+001   7.08452621E-001   2.67828599E-001   7.08459732E-001
   4.50000000E+001   7.46820251E-001   2.67838907E-001   7.46824661E-001
   5.00000000E+001   7.78199026E-001   2.67844171E-001   7.78201838E-001
   5.50000000E+001   8.05252478E-001   2.67847048E-001   8.05254341E-001
   6.00000000E+001   8.27883990E-001   2.67848711E-001   8.27885254E-001
   6.50000000E+001   8.48243867E-001   2.67849717E-001   8.48244754E-001
   7.00000000E+001   8.64793534E-001   2.67850350E-001   8.64794164E-001
   7.50000000E+001   8.79408671E-001   2.67850762E-001   8.79409129E-001
   8.00000000E+001   8.92491255E-001   2.67851037E-001   8.92491595E-001
   8.50000000E+001   9.04102614E-001   2.67851227E-001   9.04102870E-001
   9.00000000E+001   9.14292561E-001   2.67851360E-001   9.14292757E-001
   9.50000000E+001   9.22795446E-001   2.67851455E-001   9.22795598E-001
   1.00000000E+002   9.30679924E-001   2.67851524E-001   9.30680042E-001
   1.05000000E+002   9.37296415E-001   2.67851575E-001   9.37296509E-001
   1.10000000E+002   9.43268376E-001   2.67851614E-001   9.43268451E-001
   1.15000000E+002   9.48822212E-001   2.67851643E-001   9.48822273E-001
   1.20000000E+002   9.53795410E-001   2.67851666E-001   9.53795459E-001
   1.25000000E+002   9.58091106E-001   2.67851684E-001   9.58091146E-001
   1.30000000E+002   9.61864091E-001   2.67851697E-001   9.61864125E-001
   1.35000000E+002   9.65471041E-001   2.67851708E-001   9.65471069E-001
   1.40000000E+002   9.68756425E-001   2.67851717E-001   9.68756448E-001
   1.45000000E+002   9.71643012E-001   2.67851724E-001   9.71643032E-001
   1.50000000E+002   9.74057659E-001   2.67851730E-001   9.74057675E-001
   1.55000000E+002   9.76559832E-001   2.67851735E-001   9.76559846E-001
   1.60000000E+002   9.78810777E-001   2.67851739E-001   9.78810789E-001
   1.65000000E+002   9.80457646E-001   2.67851742E-001   9.80457656E-001
   1.70000000E+002   9.82262460E-001   2.67851745E-001   9.82262469E-001
   1.75000000E+002   9.83950335E-001   2.67851747E-001   9.83950342E-001
   1.80000000E+002   9.85328641E-001   2.67851749E-001   9.85328648E-001
   1.85000000E+002   9.86604892E-001   2.67851750E-001   9.86604898E-001
   1.90000000E+002   9.87843680E-001   2.67851752E-001   9.87843685E-001
   1.95000000E+002   9.88980913E-001   2.67851753E-001   9.88980917E-001
   2.00000000E+002   9.89997805E-001   2.67851754E-001   9.89997809E-001
   2.05000000E+002   9.90862143E-001   2.67851755E-001   9.90862147E-001
   2.10000000E+002   9.91684804E-001   2.67851755E-001   9.91684807E-001
   2.15000000E+002   9.92387790E-001   2.67851756E-001   9.92387793E-001
   2.20000000E+002   9.93217132E-001   2.67851757E-001   9.93217135E-001
   2.25000000E+002   9.93760485E-001   2.67851757E-001   9.93760488E-001
   2.30000000E+002   9.94353946E-001   2.67851758E-001   9.94353948E-001
   2.35000000E+002   9.94831439E-001   2.67851758E-001   9.94831441E-001
   2.40000000E+002   9.95312710E-001   2.67851758E-001   9.95312711E-001
   2.45000000E+002   9.95812143E-001   2.67851759E-001   9.95812145E-001
