# ./jetvheto -in n3lo-fixed-order/H125-LHC13-R04-mb-0-mt-1725-xmur050-xmuf050-log.fxd -xQ 0.25 -out benchmarks-n3lo-smallR/H125-LHC13-R04-mb-0-mt-1725-xmur050-xmuf050-xQ025-N3LO+NNLLb.R0-0.5.res -scheme b -order 2 -ptmax 500.01 -small-r -fixed_order 3 -loop-mass t -R0 0.5
# process = H    
# collider = pp   
# rts =  13000.000
# M   =    125.000
# muR =     62.500
# muF =     62.500
# Q   =     31.250
# p   =      5.000
# include_c1_squared =   F
# loop_mass  = t   
# alphas(MZ) =    0.11800
# alphas(M) =    0.11264
# alphas(muR) =    0.12516
# Rjet =      0.400
# order = NNLL
# pdf name and set = PDF4LHC15_nnlo_mc.LHgrid,    0
# matching scheme = b
# total cross sections [nb] at LO, NLOdiff, NNLOdiff, N3LOdiff =     0.015885    0.020561    0.008998    0.001413
#----------------------------------------------------------------------
# the lines that follow give the jet-veto efficiencies as a function of pt
#         pt            matched eff      resummed eff     fixed-order eff
   2.00000000E+001   4.47249168E-001   4.94477220E-001   4.41643521E-001
   2.50000000E+001   5.32906945E-001   5.64598482E-001   5.29528045E-001
   3.00000000E+001   6.05749445E-001   6.06116954E-001   6.04131024E-001
   3.50000000E+001   6.64160546E-001   6.28818276E-001   6.63337130E-001
   4.00000000E+001   7.09784972E-001   6.40777897E-001   7.09302441E-001
   4.50000000E+001   7.49636384E-001   6.47108811E-001   7.49371437E-001
   5.00000000E+001   7.81865431E-001   6.50560595E-001   7.81702411E-001
   5.50000000E+001   8.09566149E-001   6.52517424E-001   8.09465789E-001
   6.00000000E+001   8.32446195E-001   6.53672171E-001   8.32379427E-001
   6.50000000E+001   8.53547348E-001   6.54379801E-001   8.53504482E-001
   7.00000000E+001   8.69885984E-001   6.54828518E-001   8.69854849E-001
   7.50000000E+001   8.84463082E-001   6.55121875E-001   8.84440584E-001
   8.00000000E+001   8.97599357E-001   6.55318940E-001   8.97583035E-001
   8.50000000E+001   9.09245348E-001   6.55454553E-001   9.09233323E-001
   9.00000000E+001   9.19511673E-001   6.55549910E-001   9.19502663E-001
   9.50000000E+001   9.27735369E-001   6.55618264E-001   9.27728280E-001
   1.00000000E+002   9.35568751E-001   6.55668121E-001   9.35563225E-001
   1.05000000E+002   9.41792840E-001   6.55705058E-001   9.41788367E-001
   1.10000000E+002   9.47506692E-001   6.55732816E-001   9.47503067E-001
   1.15000000E+002   9.52905927E-001   6.55753947E-001   9.52903001E-001
   1.20000000E+002   9.57768778E-001   6.55770225E-001   9.57766396E-001
   1.25000000E+002   9.61823762E-001   6.55782901E-001   9.61821780E-001
   1.30000000E+002   9.65322534E-001   6.55792872E-001   9.65320871E-001
   1.35000000E+002   9.68791305E-001   6.55800786E-001   9.68789919E-001
   1.40000000E+002   9.71952513E-001   6.55807123E-001   9.71951352E-001
   1.45000000E+002   9.74703868E-001   6.55812238E-001   9.74702884E-001
   1.50000000E+002   9.76855296E-001   6.55816395E-001   9.76854447E-001
   1.55000000E+002   9.79290323E-001   6.55819799E-001   9.79289601E-001
   1.60000000E+002   9.81471296E-001   6.55822604E-001   9.81470679E-001
   1.65000000E+002   9.82817461E-001   6.55824929E-001   9.82816919E-001
   1.70000000E+002   9.84547915E-001   6.55826867E-001   9.84547446E-001
   1.75000000E+002   9.86142933E-001   6.55828492E-001   9.86142527E-001
   1.80000000E+002   9.87365984E-001   6.55829860E-001   9.87365627E-001
   1.85000000E+002   9.88489883E-001   6.55831019E-001   9.88489569E-001
   1.90000000E+002   9.89640078E-001   6.55832004E-001   9.89639801E-001
   1.95000000E+002   9.90701966E-001   6.55832845E-001   9.90701722E-001
   2.00000000E+002   9.91640747E-001   6.55833566E-001   9.91640532E-001
   2.05000000E+002   9.92381463E-001   6.55834186E-001   9.92381271E-001
   2.10000000E+002   9.93124526E-001   6.55834722E-001   9.93124356E-001
   2.15000000E+002   9.93702319E-001   6.55835187E-001   9.93702166E-001
   2.20000000E+002   9.94524106E-001   6.55835591E-001   9.94523970E-001
   2.25000000E+002   9.94951338E-001   6.55835944E-001   9.94951215E-001
   2.30000000E+002   9.95476833E-001   6.55836252E-001   9.95476723E-001
   2.35000000E+002   9.95859619E-001   6.55836523E-001   9.95859519E-001
   2.40000000E+002   9.96276844E-001   6.55836761E-001   9.96276754E-001
   2.45000000E+002   9.96764561E-001   6.55836972E-001   9.96764480E-001
