# ./jetvheto -in n3lo-fixed-order/H125-LHC13-R04-mb-475-mt-1725-xmur100-xmuf200-log.fxd -xQ 0.0625 -out benchmarks-n3lo-smallR/H125-LHC13-R04-mb-475-mt-1725-xmur100-xmuf200-xQ0625-NNLO+NNLLb.R0-2.0.res -scheme b -order 2 -ptmax 500.01 -fixed_order 2 -small-r -loop-mass t+b -R0 2.0
# process = H    
# collider = pp   
# rts =  13000.000
# M   =    125.000
# muR =    125.000
# muF =    250.000
# Q   =      7.812
# p   =      5.000
# include_c1_squared =   F
# loop_mass  = t+b 
# alphas(MZ) =    0.11800
# alphas(M) =    0.11264
# alphas(muR) =    0.11264
# Rjet =      0.400
# order = NNLL
# pdf name and set = PDF4LHC15_nnlo_mc.LHgrid,    0
# matching scheme = b
# total cross sections [nb] at LO, NLOdiff, NNLOdiff, N3LOdiff =     0.012791    0.017144    0.009991    0.003297
#----------------------------------------------------------------------
# the lines that follow give the jet-veto efficiencies as a function of pt
#         pt            matched eff      resummed eff     fixed-order eff
   2.00000000E+001   3.29695037E-001   2.89579417E-001   3.29106479E-001
   2.50000000E+001   4.39676219E-001   2.90090694E-001   4.39529527E-001
   3.00000000E+001   5.24166640E-001   2.90240413E-001   5.24122484E-001
   3.50000000E+001   5.91316111E-001   2.90294541E-001   5.91301191E-001
   4.00000000E+001   6.45746103E-001   2.90317255E-001   6.45740756E-001
   4.50000000E+001   6.90717979E-001   2.90327902E-001   6.90716080E-001
   5.00000000E+001   7.28256556E-001   2.90333339E-001   7.28255957E-001
   5.50000000E+001   7.59993638E-001   2.90336311E-001   7.59993542E-001
   6.00000000E+001   7.86927034E-001   2.90338029E-001   7.86927122E-001
   6.50000000E+001   8.10143270E-001   2.90339068E-001   8.10143416E-001
   7.00000000E+001   8.30304022E-001   2.90339722E-001   8.30304175E-001
   7.50000000E+001   8.47789204E-001   2.90340147E-001   8.47789344E-001
   8.00000000E+001   8.63170158E-001   2.90340432E-001   8.63170279E-001
   8.50000000E+001   8.76593180E-001   2.90340628E-001   8.76593282E-001
   9.00000000E+001   8.88472209E-001   2.90340765E-001   8.88472295E-001
   9.50000000E+001   8.98951283E-001   2.90340863E-001   8.98951354E-001
   1.00000000E+002   9.08188880E-001   2.90340935E-001   9.08188939E-001
   1.05000000E+002   9.16526072E-001   2.90340988E-001   9.16526121E-001
   1.10000000E+002   9.23945145E-001   2.90341028E-001   9.23945186E-001
   1.15000000E+002   9.30593483E-001   2.90341058E-001   9.30593517E-001
   1.20000000E+002   9.36552177E-001   2.90341081E-001   9.36552205E-001
   1.25000000E+002   9.41889876E-001   2.90341100E-001   9.41889900E-001
   1.30000000E+002   9.46703460E-001   2.90341114E-001   9.46703480E-001
   1.35000000E+002   9.51097615E-001   2.90341125E-001   9.51097632E-001
   1.40000000E+002   9.55052458E-001   2.90341134E-001   9.55052473E-001
   1.45000000E+002   9.58633027E-001   2.90341142E-001   9.58633039E-001
   1.50000000E+002   9.61898296E-001   2.90341148E-001   9.61898307E-001
   1.55000000E+002   9.64856473E-001   2.90341153E-001   9.64856482E-001
   1.60000000E+002   9.67585872E-001   2.90341157E-001   9.67585880E-001
   1.65000000E+002   9.70070344E-001   2.90341160E-001   9.70070351E-001
   1.70000000E+002   9.72330758E-001   2.90341163E-001   9.72330764E-001
   1.75000000E+002   9.74362588E-001   2.90341165E-001   9.74362593E-001
   1.80000000E+002   9.76262079E-001   2.90341167E-001   9.76262084E-001
   1.85000000E+002   9.78008352E-001   2.90341169E-001   9.78008356E-001
   1.90000000E+002   9.79584640E-001   2.90341170E-001   9.79584644E-001
   1.95000000E+002   9.81044617E-001   2.90341171E-001   9.81044620E-001
   2.00000000E+002   9.82374637E-001   2.90341172E-001   9.82374640E-001
   2.05000000E+002   9.83611083E-001   2.90341173E-001   9.83611085E-001
   2.10000000E+002   9.84754811E-001   2.90341174E-001   9.84754813E-001
   2.15000000E+002   9.85809336E-001   2.90341175E-001   9.85809338E-001
   2.20000000E+002   9.86776204E-001   2.90341175E-001   9.86776206E-001
   2.25000000E+002   9.87663702E-001   2.90341176E-001   9.87663703E-001
   2.30000000E+002   9.88499139E-001   2.90341176E-001   9.88499140E-001
   2.35000000E+002   9.89277587E-001   2.90341177E-001   9.89277589E-001
   2.40000000E+002   9.89963742E-001   2.90341177E-001   9.89963744E-001
   2.45000000E+002   9.90625023E-001   2.90341177E-001   9.90625024E-001
