# ./jetvheto -in n3lo-fixed-order/H125-LHC13-R04-mb-475-mt-1725-xmur100-xmuf050-log.fxd -xQ 0.25 -out benchmarks-n3lo-smallR/H125-LHC13-R04-mb-475-mt-1725-xmur100-xmuf050-xQ025-N3LO+NNLLb.R0-1.0.res -scheme b -order 2 -ptmax 500.01 -fixed_order 3 -small-r -loop-mass t+b -R0 1.0
# process = H    
# collider = pp   
# rts =  13000.000
# M   =    125.000
# muR =    125.000
# muF =     62.500
# Q   =     31.250
# p   =      5.000
# include_c1_squared =   F
# loop_mass  = t+b 
# alphas(MZ) =    0.11800
# alphas(M) =    0.11264
# alphas(muR) =    0.11264
# Rjet =      0.400
# order = NNLL
# pdf name and set = PDF4LHC15_nnlo_mc.LHgrid,    0
# matching scheme = b
# total cross sections [nb] at LO, NLOdiff, NNLOdiff, N3LOdiff =     0.011575    0.016866    0.010424    0.004163
#----------------------------------------------------------------------
# the lines that follow give the jet-veto efficiencies as a function of pt
#         pt            matched eff      resummed eff     fixed-order eff
   2.00000000E+001   4.11911187E-001   5.09817578E-001   3.95043602E-001
   2.50000000E+001   4.97104597E-001   5.81234634E-001   4.88534588E-001
   3.00000000E+001   5.70110339E-001   6.23543485E-001   5.66104441E-001
   3.50000000E+001   6.29999674E-001   6.46687747E-001   6.28112290E-001
   4.00000000E+001   6.78171438E-001   6.58884490E-001   6.77231454E-001
   4.50000000E+001   7.20172648E-001   6.65342106E-001   7.19705835E-001
   5.00000000E+001   7.54691589E-001   6.68863340E-001   7.54443972E-001
   5.50000000E+001   7.84528276E-001   6.70859659E-001   7.84394199E-001
   6.00000000E+001   8.09526111E-001   6.72037751E-001   8.09449218E-001
   6.50000000E+001   8.32033092E-001   6.72759702E-001   8.31989521E-001
   7.00000000E+001   8.50338698E-001   6.73217507E-001   8.50311618E-001
   7.50000000E+001   8.66509061E-001   6.73516808E-001   8.66492063E-001
   8.00000000E+001   8.80986589E-001   6.73717866E-001   8.80975853E-001
   8.50000000E+001   8.93837740E-001   6.73856229E-001   8.93830869E-001
   9.00000000E+001   9.05116705E-001   6.73953518E-001   9.05112243E-001
   9.50000000E+001   9.14528968E-001   6.74023259E-001   9.14525864E-001
   1.00000000E+002   9.23256968E-001   6.74074126E-001   9.23254849E-001
   1.05000000E+002   9.30581587E-001   6.74111813E-001   9.30580037E-001
   1.10000000E+002   9.37192797E-001   6.74140134E-001   9.37191662E-001
   1.15000000E+002   9.43341201E-001   6.74161693E-001   9.43340381E-001
   1.20000000E+002   9.48846868E-001   6.74178301E-001   9.48846269E-001
   1.25000000E+002   9.53602549E-001   6.74191235E-001   9.53602088E-001
   1.30000000E+002   9.57779571E-001   6.74201407E-001   9.57779208E-001
   1.35000000E+002   9.61772787E-001   6.74209482E-001   9.61772510E-001
   1.40000000E+002   9.65410016E-001   6.74215948E-001   9.65409802E-001
   1.45000000E+002   9.68605751E-001   6.74221166E-001   9.68605581E-001
   1.50000000E+002   9.71279013E-001   6.74225408E-001   9.71278869E-001
   1.55000000E+002   9.74049172E-001   6.74228881E-001   9.74049059E-001
   1.60000000E+002   9.76541201E-001   6.74231743E-001   9.76541110E-001
   1.65000000E+002   9.78364464E-001   6.74234115E-001   9.78364382E-001
   1.70000000E+002   9.80362585E-001   6.74236092E-001   9.80362517E-001
   1.75000000E+002   9.82231242E-001   6.74237750E-001   9.82231187E-001
   1.80000000E+002   9.83757177E-001   6.74239146E-001   9.83757129E-001
   1.85000000E+002   9.85170127E-001   6.74240328E-001   9.85170084E-001
   1.90000000E+002   9.86541600E-001   6.74241333E-001   9.86541564E-001
   1.95000000E+002   9.87800642E-001   6.74242191E-001   9.87800610E-001
   2.00000000E+002   9.88926454E-001   6.74242926E-001   9.88926426E-001
   2.05000000E+002   9.89883372E-001   6.74243560E-001   9.89883347E-001
   2.10000000E+002   9.90794148E-001   6.74244107E-001   9.90794127E-001
   2.15000000E+002   9.91572432E-001   6.74244581E-001   9.91572413E-001
   2.20000000E+002   9.92490606E-001   6.74244993E-001   9.92490589E-001
   2.25000000E+002   9.93092159E-001   6.74245353E-001   9.93092144E-001
   2.30000000E+002   9.93749186E-001   6.74245668E-001   9.93749172E-001
   2.35000000E+002   9.94277824E-001   6.74245944E-001   9.94277812E-001
   2.40000000E+002   9.94810645E-001   6.74246187E-001   9.94810633E-001
   2.45000000E+002   9.95363574E-001   6.74246402E-001   9.95363563E-001
