# ./jetvheto -in n3lo-fixed-order/H125-LHC13-R04-mb-475-mt-1725-xmur100-xmuf050-log.fxd -xQ 0.5 -out benchmarks-n3lo-smallR/H125-LHC13-R04-mb-475-mt-1725-xmur100-xmuf050-xQ050-N3LO+NNLLb.res -scheme b -order 2 -ptmax 500.01 -fixed_order 3 -loop-mass t+b
# process = H    
# collider = pp   
# rts =  13000.000
# M   =    125.000
# muR =    125.000
# muF =     62.500
# Q   =     62.500
# p   =      5.000
# include_c1_squared =   F
# loop_mass  = t+b 
# alphas(MZ) =    0.11800
# alphas(M) =    0.11264
# alphas(muR) =    0.11264
# Rjet =      0.400
# order = NNLL
# pdf name and set = PDF4LHC15_nnlo_mc.LHgrid,    0
# matching scheme = b
# total cross sections [nb] at LO, NLOdiff, NNLOdiff, N3LOdiff =     0.011575    0.016866    0.010424    0.004163
#----------------------------------------------------------------------
# the lines that follow give the jet-veto efficiencies as a function of pt
#         pt            matched eff      resummed eff     fixed-order eff
   2.00000000E+001   4.17127274E-001   4.82949573E-001   3.95043602E-001
   2.50000000E+001   5.04281703E-001   5.64917764E-001   4.88534588E-001
   3.00000000E+001   5.77567655E-001   6.23811448E-001   5.66104441E-001
   3.50000000E+001   6.37041547E-001   6.65607564E-001   6.28112290E-001
   4.00000000E+001   6.84499659E-001   6.94771953E-001   6.77231454E-001
   4.50000000E+001   7.25541130E-001   7.14652551E-001   7.19705835E-001
   5.00000000E+001   7.59134641E-001   7.27839152E-001   7.54443972E-001
   5.50000000E+001   7.88104179E-001   7.36352543E-001   7.84394199E-001
   6.00000000E+001   8.12360311E-001   7.41731418E-001   8.09449218E-001
   6.50000000E+001   8.34246141E-001   7.45087069E-001   8.31989521E-001
   7.00000000E+001   8.52061514E-001   7.47177623E-001   8.50311618E-001
   7.50000000E+001   8.67845234E-001   7.48492248E-001   8.66492063E-001
   8.00000000E+001   8.82023990E-001   7.49333564E-001   8.80975853E-001
   8.50000000E+001   8.94646273E-001   7.49884151E-001   8.93830869E-001
   9.00000000E+001   9.05750409E-001   7.50253528E-001   9.05112243E-001
   9.50000000E+001   9.15029189E-001   7.50507564E-001   9.14525864E-001
   1.00000000E+002   9.23654591E-001   7.50686429E-001   9.23254849E-001
   1.05000000E+002   9.30900108E-001   7.50815115E-001   9.30580037E-001
   1.10000000E+002   9.37449828E-001   7.50909521E-001   9.37191662E-001
   1.15000000E+002   9.43550088E-001   7.50979996E-001   9.43340381E-001
   1.20000000E+002   9.49017828E-001   7.51033430E-001   9.48846269E-001
   1.25000000E+002   9.53743458E-001   7.51074510E-001   9.53602088E-001
   1.30000000E+002   9.57896447E-001   7.51106486E-001   9.57779208E-001
   1.35000000E+002   9.61870313E-001   7.51131657E-001   9.61772510E-001
   1.40000000E+002   9.65491870E-001   7.51151672E-001   9.65409802E-001
   1.45000000E+002   9.68674832E-001   7.51167733E-001   9.68605581E-001
   1.50000000E+002   9.71337634E-001   7.51180732E-001   9.71278869E-001
   1.55000000E+002   9.74099147E-001   7.51191332E-001   9.74049059E-001
   1.60000000E+002   9.76584005E-001   7.51200038E-001   9.76541110E-001
   1.65000000E+002   9.78401299E-001   7.51207237E-001   9.78364382E-001
   1.70000000E+002   9.80394409E-001   7.51213225E-001   9.80362517E-001
   1.75000000E+002   9.82258849E-001   7.51218234E-001   9.82231187E-001
   1.80000000E+002   9.83781216E-001   7.51222448E-001   9.83757129E-001
   1.85000000E+002   9.85191135E-001   7.51226009E-001   9.85170084E-001
   1.90000000E+002   9.86560022E-001   7.51229034E-001   9.86541564E-001
   1.95000000E+002   9.87816847E-001   7.51231614E-001   9.87800610E-001
   2.00000000E+002   9.88940755E-001   7.51233825E-001   9.88926426E-001
   2.05000000E+002   9.89896031E-001   7.51235726E-001   9.89883347E-001
   2.10000000E+002   9.90805384E-001   7.51237367E-001   9.90794127E-001
   2.15000000E+002   9.91582433E-001   7.51238789E-001   9.91572413E-001
   2.20000000E+002   9.92499530E-001   7.51240025E-001   9.92490589E-001
   2.25000000E+002   9.93100142E-001   7.51241103E-001   9.93092144E-001
   2.30000000E+002   9.93756344E-001   7.51242046E-001   9.93749172E-001
   2.35000000E+002   9.94284258E-001   7.51242873E-001   9.94277812E-001
   2.40000000E+002   9.94816440E-001   7.51243602E-001   9.94810633E-001
   2.45000000E+002   9.95368804E-001   7.51244244E-001   9.95363563E-001
