# ./jetvheto -in n3lo-fixed-order/H125-LHC13-R04-mb-475-mt-1725-xmur100-xmuf050-log.fxd -xQ 0.5 -out benchmarks-n3lo-smallR/H125-LHC13-R04-mb-475-mt-1725-xmur100-xmuf050-xQ050-NNLO+NNLLa.R0-2.0.res -scheme a -order 2 -ptmax 500.01 -fixed_order 2 -small-r -loop-mass t+b -R0 2.0
# process = H    
# collider = pp   
# rts =  13000.000
# M   =    125.000
# muR =    125.000
# muF =     62.500
# Q   =     62.500
# p   =      5.000
# include_c1_squared =   F
# loop_mass  = t+b 
# alphas(MZ) =    0.11800
# alphas(M) =    0.11264
# alphas(muR) =    0.11264
# Rjet =      0.400
# order = NNLL
# pdf name and set = PDF4LHC15_nnlo_mc.LHgrid,    0
# matching scheme = a
# total cross sections [nb] at LO, NLOdiff, NNLOdiff, N3LOdiff =     0.011575    0.016866    0.010424    0.004163
#----------------------------------------------------------------------
# the lines that follow give the jet-veto efficiencies as a function of pt
#         pt            matched eff      resummed eff     fixed-order eff
   2.00000000E+001   4.66510111E-001   4.94956079E-001   4.89064583E-001
   2.50000000E+001   5.54909043E-001   5.74080150E-001   5.70034720E-001
   3.00000000E+001   6.24730456E-001   6.30667857E-001   6.32942870E-001
   3.50000000E+001   6.80322355E-001   6.70670529E-001   6.83258386E-001
   4.00000000E+001   7.24815401E-001   6.98470676E-001   7.24239561E-001
   4.50000000E+001   7.61035593E-001   7.17331090E-001   7.58461479E-001
   5.00000000E+001   7.90692859E-001   7.29767024E-001   7.87253375E-001
   5.50000000E+001   8.15228808E-001   7.37736406E-001   8.11661801E-001
   6.00000000E+001   8.35896911E-001   7.42726003E-001   8.32610002E-001
   6.50000000E+001   8.53507706E-001   7.45805443E-001   8.50676857E-001
   7.00000000E+001   8.68799417E-001   7.47700683E-001   8.66457347E-001
   7.50000000E+001   8.82046617E-001   7.48876997E-001   8.80153278E-001
   8.00000000E+001   8.93744583E-001   7.49619833E-001   8.92232619E-001
   8.50000000E+001   9.04133844E-001   7.50099716E-001   9.02932418E-001
   9.00000000E+001   9.13277512E-001   7.50417812E-001   9.12323320E-001
   9.50000000E+001   9.21392711E-001   7.50634240E-001   9.20632683E-001
   1.00000000E+002   9.28682211E-001   7.50785206E-001   9.28074069E-001
   1.05000000E+002   9.35205545E-001   7.50892958E-001   9.34716121E-001
   1.10000000E+002   9.41018272E-001   7.50971481E-001   9.40622008E-001
   1.15000000E+002   9.46284069E-001   7.51029775E-001   9.45961129E-001
   1.20000000E+002   9.51009350E-001   7.51073772E-001   9.50744483E-001
   1.25000000E+002   9.55319024E-001   7.51107471E-001   9.55100393E-001
   1.30000000E+002   9.59171904E-001   7.51133622E-001   9.58990329E-001
   1.35000000E+002   9.62661767E-001   7.51154155E-001   9.62510083E-001
   1.40000000E+002   9.65853260E-001   7.51170448E-001   9.65725821E-001
   1.45000000E+002   9.68741599E-001   7.51183502E-001   9.68633949E-001
   1.50000000E+002   9.71389291E-001   7.51194050E-001   9.71297891E-001
   1.55000000E+002   9.73795521E-001   7.51202643E-001   9.73717539E-001
   1.60000000E+002   9.75984287E-001   7.51209694E-001   9.75917445E-001
   1.65000000E+002   9.77970960E-001   7.51215518E-001   9.77913415E-001
   1.70000000E+002   9.79781532E-001   7.51220360E-001   9.79731786E-001
   1.75000000E+002   9.81460876E-001   7.51224408E-001   9.81417700E-001
   1.80000000E+002   9.82972791E-001   7.51227812E-001   9.82935177E-001
   1.85000000E+002   9.84380367E-001   7.51230688E-001   9.84347479E-001
   1.90000000E+002   9.85663108E-001   7.51233129E-001   9.85634255E-001
   1.95000000E+002   9.86837313E-001   7.51235211E-001   9.86811918E-001
   2.00000000E+002   9.87910733E-001   7.51236994E-001   9.87888312E-001
   2.05000000E+002   9.88901479E-001   7.51238527E-001   9.88881626E-001
   2.10000000E+002   9.89792737E-001   7.51239851E-001   9.89775108E-001
   2.15000000E+002   9.90637404E-001   7.51240997E-001   9.90621707E-001
   2.20000000E+002   9.91414402E-001   7.51241994E-001   9.91400389E-001
   2.25000000E+002   9.92106287E-001   7.51242862E-001   9.92093747E-001
   2.30000000E+002   9.92771934E-001   7.51243622E-001   9.92760685E-001
   2.35000000E+002   9.93361309E-001   7.51244289E-001   9.93351196E-001
   2.40000000E+002   9.93914082E-001   7.51244876E-001   9.93904970E-001
   2.45000000E+002   9.94412701E-001   7.51245393E-001   9.94404475E-001
