# ./jetvheto -in n3lo-fixed-order/H125-LHC13-R04-mb-475-mt-1725-xmur100-xmuf050-log.fxd -xQ 0.25 -out benchmarks-n3lo-smallR/H125-LHC13-R04-mb-475-mt-1725-xmur100-xmuf050-xQ025-N3LO+NNLLa.R0-0.5.res -scheme a -order 2 -ptmax 500.01 -fixed_order 3 -small-r -loop-mass t+b -R0 0.5
# process = H    
# collider = pp   
# rts =  13000.000
# M   =    125.000
# muR =    125.000
# muF =     62.500
# Q   =     31.250
# p   =      5.000
# include_c1_squared =   F
# loop_mass  = t+b 
# alphas(MZ) =    0.11800
# alphas(M) =    0.11264
# alphas(muR) =    0.11264
# Rjet =      0.400
# order = NNLL
# pdf name and set = PDF4LHC15_nnlo_mc.LHgrid,    0
# matching scheme = a
# total cross sections [nb] at LO, NLOdiff, NNLOdiff, N3LOdiff =     0.011575    0.016866    0.010424    0.004163
#----------------------------------------------------------------------
# the lines that follow give the jet-veto efficiencies as a function of pt
#         pt            matched eff      resummed eff     fixed-order eff
   2.00000000E+001   4.45895767E-001   5.09052462E-001   4.53573922E-001
   2.50000000E+001   5.32891143E-001   5.80798953E-001   5.38019533E-001
   3.00000000E+001   6.04718699E-001   6.23306424E-001   6.08084402E-001
   3.50000000E+001   6.62009847E-001   6.46559273E-001   6.64092911E-001
   4.00000000E+001   7.07198609E-001   6.58813025E-001   7.08459732E-001
   4.50000000E+001   7.46022698E-001   6.65300734E-001   7.46824661E-001
   5.00000000E+001   7.77685174E-001   6.68838344E-001   7.78201838E-001
   5.50000000E+001   8.04909189E-001   6.70843937E-001   8.05254341E-001
   6.00000000E+001   8.27650298E-001   6.72027498E-001   8.27885254E-001
   6.50000000E+001   8.48078946E-001   6.72752799E-001   8.48244754E-001
   7.00000000E+001   8.64676454E-001   6.73212727E-001   8.64794164E-001
   7.50000000E+001   8.79323526E-001   6.73513416E-001   8.79409129E-001
   8.00000000E+001   8.92428037E-001   6.73715407E-001   8.92491595E-001
   8.50000000E+001   9.04054899E-001   6.73854411E-001   9.04102870E-001
   9.00000000E+001   9.14256030E-001   6.73952152E-001   9.14292757E-001
   9.50000000E+001   9.22767272E-001   6.74022216E-001   9.22795598E-001
   1.00000000E+002   9.30657852E-001   6.74073318E-001   9.30680042E-001
   1.05000000E+002   9.37279011E-001   6.74111180E-001   9.37296509E-001
   1.10000000E+002   9.43254493E-001   6.74139632E-001   9.43268451E-001
   1.15000000E+002   9.48811012E-001   6.74161292E-001   9.48822273E-001
   1.20000000E+002   9.53786295E-001   6.74177977E-001   9.53795459E-001
   1.25000000E+002   9.58083647E-001   6.74190970E-001   9.58091146E-001
   1.30000000E+002   9.61857945E-001   6.74201189E-001   9.61864125E-001
   1.35000000E+002   9.65465930E-001   6.74209302E-001   9.65471069E-001
   1.40000000E+002   9.68752147E-001   6.74215798E-001   9.68756448E-001
   1.45000000E+002   9.71639413E-001   6.74221040E-001   9.71643032E-001
   1.50000000E+002   9.74054621E-001   6.74225302E-001   9.74057675E-001
   1.55000000E+002   9.76557246E-001   6.74228791E-001   9.76559846E-001
   1.60000000E+002   9.78808564E-001   6.74231665E-001   9.78810789E-001
   1.65000000E+002   9.80455752E-001   6.74234049E-001   9.80457656E-001
   1.70000000E+002   9.82260826E-001   6.74236035E-001   9.82262469E-001
   1.75000000E+002   9.83948919E-001   6.74237700E-001   9.83950342E-001
   1.80000000E+002   9.85327411E-001   6.74239103E-001   9.85328648E-001
   1.85000000E+002   9.86603820E-001   6.74240291E-001   9.86604898E-001
   1.90000000E+002   9.87842741E-001   6.74241300E-001   9.87843685E-001
   1.95000000E+002   9.88980087E-001   6.74242162E-001   9.88980917E-001
   2.00000000E+002   9.89997077E-001   6.74242901E-001   9.89997809E-001
   2.05000000E+002   9.90861500E-001   6.74243537E-001   9.90862147E-001
   2.10000000E+002   9.91684234E-001   6.74244087E-001   9.91684807E-001
   2.15000000E+002   9.92387283E-001   6.74244563E-001   9.92387793E-001
   2.20000000E+002   9.93216680E-001   6.74244977E-001   9.93217135E-001
   2.25000000E+002   9.93760082E-001   6.74245339E-001   9.93760488E-001
   2.30000000E+002   9.94353584E-001   6.74245655E-001   9.94353948E-001
   2.35000000E+002   9.94831115E-001   6.74245933E-001   9.94831441E-001
   2.40000000E+002   9.95312418E-001   6.74246177E-001   9.95312711E-001
   2.45000000E+002   9.95811880E-001   6.74246393E-001   9.95812145E-001
