# ./jetvheto -in n3lo-fixed-order/H125-LHC13-R04-mb-475-mt-1725-xmur200-xmuf100-log.fxd -xQ 0.5 -out benchmarks-n3lo-smallR/H125-LHC13-R04-mb-475-mt-1725-xmur200-xmuf100-xQ050-N3LO+NNLLb.res -scheme b -order 2 -ptmax 500.01 -fixed_order 3 -loop-mass t+b
# process = H    
# collider = pp   
# rts =  13000.000
# M   =    125.000
# muR =    250.000
# muF =    125.000
# Q   =     62.500
# p   =      5.000
# include_c1_squared =   F
# loop_mass  = t+b 
# alphas(MZ) =    0.11800
# alphas(M) =    0.11264
# alphas(muR) =    0.10244
# Rjet =      0.400
# order = NNLL
# pdf name and set = PDF4LHC15_nnlo_mc.LHgrid,    0
# matching scheme = b
# total cross sections [nb] at LO, NLOdiff, NNLOdiff, N3LOdiff =     0.010243    0.014468    0.010526    0.005600
#----------------------------------------------------------------------
# the lines that follow give the jet-veto efficiencies as a function of pt
#         pt            matched eff      resummed eff     fixed-order eff
   2.00000000E+001   4.17757428E-001   5.12805767E-001   3.89818525E-001
   2.50000000E+001   5.04084324E-001   5.96923082E-001   4.86093830E-001
   3.00000000E+001   5.76991146E-001   6.57160381E-001   5.64941031E-001
   3.50000000E+001   6.35636932E-001   6.99775458E-001   6.26766390E-001
   4.00000000E+001   6.83690746E-001   7.29396067E-001   6.76837357E-001
   4.50000000E+001   7.23328439E-001   7.49502773E-001   7.17902185E-001
   5.00000000E+001   7.56957812E-001   7.62775180E-001   7.52652485E-001
   5.50000000E+001   7.85652565E-001   7.71290947E-001   7.82254482E-001
   6.00000000E+001   8.10069457E-001   7.76628114E-001   8.07403331E-001
   6.50000000E+001   8.31699791E-001   7.79926675E-001   8.29625457E-001
   7.00000000E+001   8.50157034E-001   7.81960321E-001   8.48548309E-001
   7.50000000E+001   8.65724898E-001   7.83225081E-001   8.64477541E-001
   8.00000000E+001   8.79498870E-001   7.84025544E-001   8.78530213E-001
   8.50000000E+001   8.91831349E-001   7.84543895E-001   8.91076567E-001
   9.00000000E+001   9.02562884E-001   7.84888242E-001   9.01971116E-001
   9.50000000E+001   9.12275562E-001   7.85122980E-001   9.11808698E-001
   1.00000000E+002   9.20567392E-001   7.85286994E-001   9.20196285E-001
   1.05000000E+002   9.28037030E-001   7.85404229E-001   9.27739849E-001
   1.10000000E+002   9.34708705E-001   7.85489767E-001   9.34468996E-001
   1.15000000E+002   9.40728828E-001   7.85553334E-001   9.40534037E-001
   1.20000000E+002   9.45970766E-001   7.85601352E-001   9.45811365E-001
   1.25000000E+002   9.50637987E-001   7.85638156E-001   9.50506638E-001
   1.30000000E+002   9.55131284E-001   7.85666733E-001   9.55022375E-001
   1.35000000E+002   9.59131248E-001   7.85689181E-001   9.59040379E-001
   1.40000000E+002   9.62562687E-001   7.85707001E-001   9.62486427E-001
   1.45000000E+002   9.65814190E-001   7.85721282E-001   9.65749830E-001
   1.50000000E+002   9.68620711E-001   7.85732826E-001   9.68566114E-001
   1.55000000E+002   9.71495029E-001   7.85742231E-001   9.71448489E-001
   1.60000000E+002   9.73641284E-001   7.85749950E-001   9.73601413E-001
   1.65000000E+002   9.75826179E-001   7.85756328E-001   9.75791876E-001
   1.70000000E+002   9.77766638E-001   7.85761630E-001   9.77737000E-001
   1.75000000E+002   9.79610145E-001   7.85766064E-001   9.79584436E-001
   1.80000000E+002   9.81295783E-001   7.85769792E-001   9.81273397E-001
   1.85000000E+002   9.82825758E-001   7.85772942E-001   9.82806195E-001
   1.90000000E+002   9.84009234E-001   7.85775617E-001   9.83992078E-001
   1.95000000E+002   9.85365348E-001   7.85777898E-001   9.85350253E-001
   2.00000000E+002   9.86541946E-001   7.85779851E-001   9.86528625E-001
   2.05000000E+002   9.87579079E-001   7.85781531E-001   9.87567287E-001
   2.10000000E+002   9.88519978E-001   7.85782981E-001   9.88509511E-001
   2.15000000E+002   9.89483971E-001   7.85784237E-001   9.89474655E-001
   2.20000000E+002   9.90252998E-001   7.85785329E-001   9.90244684E-001
   2.25000000E+002   9.91022186E-001   7.85786281E-001   9.91014747E-001
   2.30000000E+002   9.91734650E-001   7.85787114E-001   9.91727980E-001
   2.35000000E+002   9.92394787E-001   7.85787845E-001   9.92388792E-001
   2.40000000E+002   9.92894519E-001   7.85788488E-001   9.92889118E-001
   2.45000000E+002   9.93485064E-001   7.85789055E-001   9.93480189E-001
