# ./jetvheto -in n3lo-fixed-order/H125-LHC13-R04-heft-xmur100-xmuf100-log.fxd -xQ 0.50 -out benchmarks-n3lo-smallR/H125-LHC13-R04-heft-xmur100-xmuf100-xQ050-N3LO+NNLLb.R0-1.5.res -scheme b -order 2 -ptmax 500.01 -fixed_order 3 -small-r -R0 1.5
# process = H    
# collider = pp   
# rts =  13000.000
# M   =    125.000
# muR =    125.000
# muF =    125.000
# Q   =     62.500
# p   =      5.000
# include_c1_squared =   F
# loop_mass  = none
# alphas(MZ) =    0.11800
# alphas(M) =    0.11264
# alphas(muR) =    0.11264
# Rjet =      0.400
# order = NNLL
# pdf name and set = PDF4LHC15_nnlo_mc.LHgrid,    0
# matching scheme = b
# total cross sections [nb] at LO, NLOdiff, NNLOdiff, N3LOdiff =     0.012945    0.016716    0.010146    0.003834
#----------------------------------------------------------------------
# the lines that follow give the jet-veto efficiencies as a function of pt
#         pt            matched eff      resummed eff     fixed-order eff
   2.00000000E+001   4.41486866E-001   5.22284782E-001   4.08842854E-001
   2.50000000E+001   5.25570509E-001   6.02860633E-001   5.02042917E-001
   3.00000000E+001   5.97181859E-001   6.59858308E-001   5.80189507E-001
   3.50000000E+001   6.53499129E-001   6.99687277E-001   6.40535859E-001
   4.00000000E+001   6.99450993E-001   7.26995174E-001   6.89380469E-001
   4.50000000E+001   7.36940548E-001   7.45234755E-001   7.29072921E-001
   5.00000000E+001   7.68834168E-001   7.57038366E-001   7.62718280E-001
   5.50000000E+001   7.96190006E-001   7.64427011E-001   7.91464926E-001
   6.00000000E+001   8.19316463E-001   7.68918214E-001   8.15679320E-001
   6.50000000E+001   8.40096125E-001   7.71592872E-001   8.37307615E-001
   7.00000000E+001   8.57665644E-001   7.73171696E-001   8.55527758E-001
   7.50000000E+001   8.72296397E-001   7.74106723E-001   8.70653294E-001
   8.00000000E+001   8.85196774E-001   7.74668190E-001   8.83928611E-001
   8.50000000E+001   8.96910950E-001   7.75012634E-001   8.95926690E-001
   9.00000000E+001   9.06952621E-001   7.75229576E-001   9.06183068E-001
   9.50000000E+001   9.16172781E-001   7.75370170E-001   9.15566581E-001
   1.00000000E+002   9.23874207E-001   7.75463948E-001   9.23392937E-001
   1.05000000E+002   9.30801873E-001   7.75528253E-001   9.30416744E-001
   1.10000000E+002   9.37072411E-001   7.75573498E-001   9.36761850E-001
   1.15000000E+002   9.42695128E-001   7.75606087E-001   9.42442779E-001
   1.20000000E+002   9.47597662E-001   7.75630058E-001   9.47391165E-001
   1.25000000E+002   9.51837476E-001   7.75648024E-001   9.51667329E-001
   1.30000000E+002   9.56084061E-001   7.75661715E-001   9.55942935E-001
   1.35000000E+002   9.59833636E-001   7.75672302E-001   9.59715852E-001
   1.40000000E+002   9.62963407E-001   7.75680597E-001   9.62864552E-001
   1.45000000E+002   9.65976781E-001   7.75687172E-001   9.65893331E-001
   1.50000000E+002   9.68524952E-001   7.75692438E-001   9.68454154E-001
   1.55000000E+002   9.71262366E-001   7.75696697E-001   9.71201993E-001
   1.60000000E+002   9.73131182E-001   7.75700169E-001   9.73079465E-001
   1.65000000E+002   9.75140006E-001   7.75703023E-001   9.75095505E-001
   1.70000000E+002   9.76911440E-001   7.75705385E-001   9.76872986E-001
   1.75000000E+002   9.78639856E-001   7.75707352E-001   9.78606495E-001
   1.80000000E+002   9.80231050E-001   7.75709001E-001   9.80201996E-001
   1.85000000E+002   9.81663482E-001   7.75710390E-001   9.81638090E-001
   1.90000000E+002   9.82668299E-001   7.75711567E-001   9.82646032E-001
   1.95000000E+002   9.83972193E-001   7.75712569E-001   9.83952600E-001
   2.00000000E+002   9.85089324E-001   7.75713425E-001   9.85072030E-001
   2.05000000E+002   9.86048427E-001   7.75714160E-001   9.86033119E-001
   2.10000000E+002   9.86919620E-001   7.75714794E-001   9.86906031E-001
   2.15000000E+002   9.87880608E-001   7.75715343E-001   9.87868512E-001
   2.20000000E+002   9.88586987E-001   7.75715819E-001   9.88576191E-001
   2.25000000E+002   9.89332890E-001   7.75716234E-001   9.89323232E-001
   2.30000000E+002   9.90033276E-001   7.75716596E-001   9.90024614E-001
   2.35000000E+002   9.90691154E-001   7.75716914E-001   9.90683369E-001
   2.40000000E+002   9.91152425E-001   7.75717194E-001   9.91145412E-001
   2.45000000E+002   9.91754439E-001   7.75717440E-001   9.91748108E-001
