# ./jetvheto -in n3lo-fixed-order/H125-LHC13-R04-heft-xmur200-xmuf100-log.fxd -xQ 0.50 -out benchmarks-n3lo-smallR/H125-LHC13-R04-heft-xmur200-xmuf100-xQ050-NNLO+NNLLb.res -scheme b -order 2 -ptmax 500.01 -fixed_order 2
# process = H    
# collider = pp   
# rts =  13000.000
# M   =    125.000
# muR =    250.000
# muF =    125.000
# Q   =     62.500
# p   =      5.000
# include_c1_squared =   F
# loop_mass  = none
# alphas(MZ) =    0.11800
# alphas(M) =    0.11264
# alphas(muR) =    0.10244
# Rjet =      0.400
# order = NNLL
# pdf name and set = PDF4LHC15_nnlo_mc.LHgrid,    0
# matching scheme = b
# total cross sections [nb] at LO, NLOdiff, NNLOdiff, N3LOdiff =     0.010706    0.014429    0.010526    0.005600
#----------------------------------------------------------------------
# the lines that follow give the jet-veto efficiencies as a function of pt
#         pt            matched eff      resummed eff     fixed-order eff
   2.00000000E+001   4.15160014E-001   5.22566641E-001   3.48106183E-001
   2.50000000E+001   4.99620911E-001   6.08321156E-001   4.55588041E-001
   3.00000000E+001   5.68253693E-001   6.69737197E-001   5.37570282E-001
   3.50000000E+001   6.24416039E-001   7.13190766E-001   6.02074156E-001
   4.00000000E+001   6.71026195E-001   7.43397726E-001   6.54294727E-001
   4.50000000E+001   7.09899057E-001   7.63905255E-001   6.97166553E-001
   5.00000000E+001   7.42745822E-001   7.77444473E-001   7.32995597E-001
   5.50000000E+001   7.70690337E-001   7.86133169E-001   7.63221162E-001
   6.00000000E+001   7.94771032E-001   7.91580027E-001   7.89063600E-001
   6.50000000E+001   8.15699775E-001   7.94947329E-001   8.11346410E-001
   7.00000000E+001   8.33878457E-001   7.97024012E-001   8.30558028E-001
   7.50000000E+001   8.49888762E-001   7.98315975E-001   8.47350188E-001
   8.00000000E+001   8.64006011E-001   7.99133939E-001   8.62056499E-001
   8.50000000E+001   8.76454831E-001   7.99663802E-001   8.74948311E-001
   9.00000000E+001   8.87588608E-001   8.00015907E-001   8.86415948E-001
   9.50000000E+001   8.97446501E-001   8.00256002E-001   8.96526436E-001
   1.00000000E+002   9.06258961E-001   8.00423800E-001   9.05531112E-001
   1.05000000E+002   9.14156714E-001   8.00543766E-001   9.13576167E-001
   1.10000000E+002   9.21212912E-001   8.00631312E-001   9.20746096E-001
   1.15000000E+002   9.27602639E-001   8.00696380E-001   9.27224331E-001
   1.20000000E+002   9.33347467E-001   8.00745539E-001   9.33038574E-001
   1.25000000E+002   9.38535631E-001   8.00783221E-001   9.38281626E-001
   1.30000000E+002   9.43225093E-001   8.00812482E-001   9.43014804E-001
   1.35000000E+002   9.47505044E-001   8.00835469E-001   9.47329832E-001
   1.40000000E+002   9.51348962E-001   8.00853718E-001   9.51202088E-001
   1.45000000E+002   9.54903872E-001   8.00868343E-001   9.54780054E-001
   1.50000000E+002   9.58090540E-001   8.00880166E-001   9.57985592E-001
   1.55000000E+002   9.61017415E-001   8.00889799E-001   9.60928009E-001
   1.60000000E+002   9.63714422E-001   8.00897705E-001   9.63637891E-001
   1.65000000E+002   9.66166687E-001   8.00904237E-001   9.66100877E-001
   1.70000000E+002   9.68441286E-001   8.00909668E-001   9.68384452E-001
   1.75000000E+002   9.70505034E-001   8.00914210E-001   9.70455751E-001
   1.80000000E+002   9.72425442E-001   8.00918028E-001   9.72382541E-001
   1.85000000E+002   9.74177120E-001   8.00921254E-001   9.74139638E-001
   1.90000000E+002   9.75796700E-001   8.00923994E-001   9.75763839E-001
   1.95000000E+002   9.77318150E-001   8.00926330E-001   9.77289243E-001
   2.00000000E+002   9.78715505E-001   8.00928331E-001   9.78689998E-001
   2.05000000E+002   9.80013006E-001   8.00930052E-001   9.79990430E-001
   2.10000000E+002   9.81207259E-001   8.00931538E-001   9.81187220E-001
   2.15000000E+002   9.82303798E-001   8.00932824E-001   9.82285962E-001
   2.20000000E+002   9.83333713E-001   8.00933943E-001   9.83317796E-001
   2.25000000E+002   9.84287588E-001   8.00934918E-001   9.84273349E-001
   2.30000000E+002   9.85179627E-001   8.00935771E-001   9.85166858E-001
   2.35000000E+002   9.86027956E-001   8.00936519E-001   9.86016478E-001
   2.40000000E+002   9.86800275E-001   8.00937178E-001   9.86789936E-001
   2.45000000E+002   9.87528726E-001   8.00937759E-001   9.87519392E-001
