# ./jetvheto -in n3lo-fixed-order/H125-LHC13-R04-mb-475-mt-1725-xmur100-xmuf200-log.fxd -xQ 0.5 -out benchmarks-n3lo-smallR/H125-LHC13-R04-mb-475-mt-1725-xmur100-xmuf200-xQ050-NNLO+NNLLa.R0-1.0.res -scheme a -order 2 -ptmax 500.01 -fixed_order 2 -small-r -loop-mass t+b -R0 1.0
# process = H    
# collider = pp   
# rts =  13000.000
# M   =    125.000
# muR =    125.000
# muF =    250.000
# Q   =     62.500
# p   =      5.000
# include_c1_squared =   F
# loop_mass  = t+b 
# alphas(MZ) =    0.11800
# alphas(M) =    0.11264
# alphas(muR) =    0.11264
# Rjet =      0.400
# order = NNLL
# pdf name and set = PDF4LHC15_nnlo_mc.LHgrid,    0
# matching scheme = a
# total cross sections [nb] at LO, NLOdiff, NNLOdiff, N3LOdiff =     0.012791    0.017144    0.009991    0.003297
#----------------------------------------------------------------------
# the lines that follow give the jet-veto efficiencies as a function of pt
#         pt            matched eff      resummed eff     fixed-order eff
   2.00000000E+001   4.88039390E-001   5.16912884E-001   4.96990142E-001
   2.50000000E+001   5.76367220E-001   5.95029597E-001   5.79781046E-001
   3.00000000E+001   6.44904030E-001   6.49793272E-001   6.43205554E-001
   3.50000000E+001   6.98845630E-001   6.87694374E-001   6.93573535E-001
   4.00000000E+001   7.41611049E-001   7.13399384E-001   7.34390203E-001
   4.50000000E+001   7.75944425E-001   7.30341552E-001   7.68110951E-001
   5.00000000E+001   8.03799961E-001   7.41121640E-001   7.96256890E-001
   5.50000000E+001   8.26775122E-001   7.47725280E-001   8.20052497E-001
   6.00000000E+001   8.45937125E-001   7.51628926E-001   8.40246247E-001
   6.50000000E+001   8.62307059E-001   7.53871344E-001   8.57652920E-001
   7.00000000E+001   8.76492649E-001   7.55135825E-001   8.72768673E-001
   7.50000000E+001   8.88822150E-001   7.55843412E-001   8.85878372E-001
   8.00000000E+001   8.99725391E-001   7.56240238E-001   8.97410399E-001
   8.50000000E+001   9.09294230E-001   7.56465040E-001   9.07474445E-001
   9.00000000E+001   9.17815293E-001   7.56594423E-001   9.16380866E-001
   9.50000000E+001   9.25373814E-001   7.56670345E-001   9.24237657E-001
   1.00000000E+002   9.32068947E-001   7.56715879E-001   9.31163638E-001
   1.05000000E+002   9.38140757E-001   7.56743845E-001   9.37414533E-001
   1.10000000E+002   9.43563634E-001   7.56761438E-001   9.42977060E-001
   1.15000000E+002   9.48438823E-001   7.56772772E-001   9.47961719E-001
   1.20000000E+002   9.52820009E-001   7.56780249E-001   9.52429312E-001
   1.25000000E+002   9.56753373E-001   7.56785296E-001   9.56431308E-001
   1.30000000E+002   9.60307524E-001   7.56788778E-001   9.60040343E-001
   1.35000000E+002   9.63557905E-001   7.56791233E-001   9.63334907E-001
   1.40000000E+002   9.66487296E-001   7.56792997E-001   9.66300093E-001
   1.45000000E+002   9.69142678E-001   7.56794289E-001   9.68984662E-001
   1.50000000E+002   9.71566911E-001   7.56795253E-001   9.71432833E-001
   1.55000000E+002   9.73765087E-001   7.56795983E-001   9.73650757E-001
   1.60000000E+002   9.75795100E-001   7.56796545E-001   9.75697154E-001
   1.65000000E+002   9.77644197E-001   7.56796984E-001   9.77559914E-001
   1.70000000E+002   9.79327515E-001   7.56797330E-001   9.79254684E-001
   1.75000000E+002   9.80841256E-001   7.56797607E-001   9.80778070E-001
   1.80000000E+002   9.82257262E-001   7.56797831E-001   9.82202234E-001
   1.85000000E+002   9.83559617E-001   7.56798013E-001   9.83511521E-001
   1.90000000E+002   9.84735541E-001   7.56798164E-001   9.84693360E-001
   1.95000000E+002   9.85825107E-001   7.56798288E-001   9.85787993E-001
   2.00000000E+002   9.86817948E-001   7.56798393E-001   9.86785191E-001
   2.05000000E+002   9.87741228E-001   7.56798481E-001   9.87712229E-001
   2.10000000E+002   9.88595496E-001   7.56798555E-001   9.88569752E-001
   2.15000000E+002   9.89383310E-001   7.56798619E-001   9.89360394E-001
   2.20000000E+002   9.90105767E-001   7.56798673E-001   9.90085314E-001
   2.25000000E+002   9.90769024E-001   7.56798720E-001   9.90750725E-001
   2.30000000E+002   9.91393514E-001   7.56798760E-001   9.91377103E-001
   2.35000000E+002   9.91975505E-001   7.56798795E-001   9.91960753E-001
   2.40000000E+002   9.92488494E-001   7.56798826E-001   9.92475205E-001
   2.45000000E+002   9.92983004E-001   7.56798853E-001   9.92971008E-001
