# ./jetvheto -in n3lo-fixed-order/H125-LHC13-R04-mb-475-mt-1725-xmur100-xmuf100-log.fxd -xQ 1.0 -out benchmarks-n3lo-smallR/H125-LHC13-R04-mb-475-mt-1725-xmur100-xmuf100-xQ100-NNLO+NNLLa.res -scheme a -order 2 -ptmax 500.01 -fixed_order 2 -loop-mass t+b
# process = H    
# collider = pp   
# rts =  13000.000
# M   =    125.000
# muR =    125.000
# muF =    125.000
# Q   =    125.000
# p   =      5.000
# include_c1_squared =   F
# loop_mass  = t+b 
# alphas(MZ) =    0.11800
# alphas(M) =    0.11264
# alphas(muR) =    0.11264
# Rjet =      0.400
# order = NNLL
# pdf name and set = PDF4LHC15_nnlo_mc.LHgrid,    0
# matching scheme = a
# total cross sections [nb] at LO, NLOdiff, NNLOdiff, N3LOdiff =     0.012292    0.016994    0.010146    0.003834
#----------------------------------------------------------------------
# the lines that follow give the jet-veto efficiencies as a function of pt
#         pt            matched eff      resummed eff     fixed-order eff
   2.00000000E+001   5.07047137E-001   5.60160955E-001   4.93150502E-001
   2.50000000E+001   6.02348200E-001   6.47871504E-001   5.75024850E-001
   3.00000000E+001   6.76882463E-001   7.09785832E-001   6.38301171E-001
   3.50000000E+001   7.35823981E-001   7.53164663E-001   6.88801162E-001
   4.00000000E+001   7.82570265E-001   7.83125828E-001   7.29800784E-001
   4.50000000E+001   8.19940005E-001   8.03247311E-001   7.63713984E-001
   5.00000000E+001   8.49961724E-001   8.16082155E-001   7.92155543E-001
   5.50000000E+001   8.74056382E-001   8.23489559E-001   8.16168137E-001
   6.00000000E+001   8.93620728E-001   8.26835970E-001   8.36797648E-001
   6.50000000E+001   9.09452143E-001   8.27146387E-001   8.54584097E-001
   7.00000000E+001   9.22209894E-001   8.25211066E-001   8.69965602E-001
   7.50000000E+001   9.32501464E-001   8.21647628E-001   8.83354565E-001
   8.00000000E+001   9.40893927E-001   8.16948473E-001   8.95150407E-001
   8.50000000E+001   9.47602672E-001   8.11509745E-001   9.05446499E-001
   9.00000000E+001   9.53148251E-001   8.05652105E-001   9.14630889E-001
   9.50000000E+001   9.57615067E-001   7.99631517E-001   9.22708788E-001
   1.00000000E+002   9.61298067E-001   7.93650867E-001   9.29893229E-001
   1.05000000E+002   9.64404385E-001   7.87865715E-001   9.36331059E-001
   1.10000000E+002   9.66957884E-001   7.82389211E-001   9.42008406E-001
   1.15000000E+002   9.69224591E-001   7.77298175E-001   9.47155949E-001
   1.20000000E+002   9.71149926E-001   7.72637199E-001   9.51709725E-001
   1.25000000E+002   9.72950211E-001   7.68424564E-001   9.55877636E-001
   1.30000000E+002   9.74578150E-001   7.64657946E-001   9.59620741E-001
   1.35000000E+002   9.76105539E-001   7.61319907E-001   9.63021762E-001
   1.40000000E+002   9.77501738E-001   7.58382844E-001   9.66068699E-001
   1.45000000E+002   9.78875692E-001   7.55813160E-001   9.68886869E-001
   1.50000000E+002   9.80126886E-001   7.53574573E-001   9.71399196E-001
   1.55000000E+002   9.81353260E-001   7.51630503E-001   9.73721950E-001
   1.60000000E+002   9.82502169E-001   7.49945729E-001   9.75822606E-001
   1.65000000E+002   9.83595368E-001   7.48487474E-001   9.77741229E-001
   1.70000000E+002   9.84639956E-001   7.47225933E-001   9.79501024E-001
   1.75000000E+002   9.85608663E-001   7.46134476E-001   9.81089888E-001
   1.80000000E+002   9.86533398E-001   7.45189633E-001   9.82552292E-001
   1.85000000E+002   9.87401864E-001   7.44370917E-001   9.83887543E-001
   1.90000000E+002   9.88225207E-001   7.43660583E-001   9.85116487E-001
   1.95000000E+002   9.89019052E-001   7.43043342E-001   9.86263234E-001
   2.00000000E+002   9.89749000E-001   7.42506075E-001   9.87300933E-001
   2.05000000E+002   9.90444416E-001   7.42037551E-001   9.88265058E-001
   2.10000000E+002   9.91088791E-001   7.41628176E-001   9.89144590E-001
   2.15000000E+002   9.91675076E-001   7.41269756E-001   9.89937088E-001
   2.20000000E+002   9.92241832E-001   7.40955297E-001   9.90684915E-001
   2.25000000E+002   9.92766280E-001   7.40678830E-001   9.91368764E-001
   2.30000000E+002   9.93256227E-001   7.40435251E-001   9.91999301E-001
   2.35000000E+002   9.93721846E-001   7.40220199E-001   9.92589146E-001
   2.40000000E+002   9.94141432E-001   7.40029935E-001   9.93118784E-001
   2.45000000E+002   9.94546064E-001   7.39861256E-001   9.93621047E-001
