# ./jetvheto -in n3lo-fixed-order/H125-LHC13-R04-heft-xmur050-xmuf050-log.fxd -xQ 0.25 -out benchmarks-n3lo-smallR/H125-LHC13-R04-heft-xmur050-xmuf050-xQ025-N3LO+NNLLb.R0-1.5.res -scheme b -order 2 -ptmax 500.01 -fixed_order 3 -small-r -R0 1.5
# process = H    
# collider = pp   
# rts =  13000.000
# M   =    125.000
# muR =     62.500
# muF =     62.500
# Q   =     31.250
# p   =      5.000
# include_c1_squared =   F
# loop_mass  = none
# alphas(MZ) =    0.11800
# alphas(M) =    0.11264
# alphas(muR) =    0.12516
# Rjet =      0.400
# order = NNLL
# pdf name and set = PDF4LHC15_nnlo_mc.LHgrid,    0
# matching scheme = b
# total cross sections [nb] at LO, NLOdiff, NNLOdiff, N3LOdiff =     0.015055    0.019611    0.008998    0.001413
#----------------------------------------------------------------------
# the lines that follow give the jet-veto efficiencies as a function of pt
#         pt            matched eff      resummed eff     fixed-order eff
   2.00000000E+001   4.40118841E-001   4.93253524E-001   4.32272620E-001
   2.50000000E+001   5.24689305E-001   5.61805521E-001   5.20076688E-001
   3.00000000E+001   5.97479767E-001   6.02403744E-001   5.95188306E-001
   3.50000000E+001   6.55849636E-001   6.24609017E-001   6.54648121E-001
   4.00000000E+001   7.01585348E-001   6.36310132E-001   7.00880952E-001
   4.50000000E+001   7.41755631E-001   6.42505129E-001   7.41355940E-001
   5.00000000E+001   7.74048928E-001   6.45883103E-001   7.73800605E-001
   5.50000000E+001   8.02207380E-001   6.47798185E-001   8.02051238E-001
   6.00000000E+001   8.25281155E-001   6.48928330E-001   8.25176712E-001
   6.50000000E+001   8.46619475E-001   6.49620897E-001   8.46550538E-001
   7.00000000E+001   8.63160544E-001   6.50060067E-001   8.63110860E-001
   7.50000000E+001   8.77930175E-001   6.50347185E-001   8.77894218E-001
   8.00000000E+001   8.91247877E-001   6.50540059E-001   8.91221610E-001
   8.50000000E+001   9.03056286E-001   6.50672790E-001   9.03036791E-001
   9.00000000E+001   9.13497477E-001   6.50766119E-001   9.13482770E-001
   9.50000000E+001   9.21865174E-001   6.50833021E-001   9.21853677E-001
   1.00000000E+002   9.29777060E-001   6.50881817E-001   9.29768082E-001
   1.05000000E+002   9.36118902E-001   6.50917970E-001   9.36111694E-001
   1.10000000E+002   9.41966569E-001   6.50945138E-001   9.41960757E-001
   1.15000000E+002   9.47460894E-001   6.50965820E-001   9.47456202E-001
   1.20000000E+002   9.52417704E-001   6.50981752E-001   9.52413885E-001
   1.25000000E+002   9.56508351E-001   6.50994158E-001   9.56505189E-001
   1.30000000E+002   9.60084852E-001   6.51003917E-001   9.60082213E-001
   1.35000000E+002   9.63661154E-001   6.51011663E-001   9.63658956E-001
   1.40000000E+002   9.66898581E-001   6.51017866E-001   9.66896738E-001
   1.45000000E+002   9.69674818E-001   6.51022871E-001   9.69673261E-001
   1.50000000E+002   9.71844260E-001   6.51026941E-001   9.71842925E-001
   1.55000000E+002   9.74324183E-001   6.51030272E-001   9.74323047E-001
   1.60000000E+002   9.76569897E-001   6.51033017E-001   9.76568926E-001
   1.65000000E+002   9.77945094E-001   6.51035293E-001   9.77944247E-001
   1.70000000E+002   9.79733411E-001   6.51037190E-001   9.79732679E-001
   1.75000000E+002   9.81408359E-001   6.51038780E-001   9.81407724E-001
   1.80000000E+002   9.82698844E-001   6.51040119E-001   9.82698288E-001
   1.85000000E+002   9.83879425E-001   6.51041253E-001   9.83878937E-001
   1.90000000E+002   9.85097795E-001   6.51042217E-001   9.85097366E-001
   1.95000000E+002   9.86220982E-001   6.51043040E-001   9.86220604E-001
   2.00000000E+002   9.87223567E-001   6.51043746E-001   9.87223233E-001
   2.05000000E+002   9.88036952E-001   6.51044353E-001   9.88036656E-001
   2.10000000E+002   9.88861758E-001   6.51044878E-001   9.88861494E-001
   2.15000000E+002   9.89504513E-001   6.51045333E-001   9.89504277E-001
   2.20000000E+002   9.90408291E-001   6.51045728E-001   9.90408081E-001
   2.25000000E+002   9.90902983E-001   6.51046073E-001   9.90902794E-001
   2.30000000E+002   9.91502389E-001   6.51046375E-001   9.91502219E-001
   2.35000000E+002   9.91961421E-001   6.51046640E-001   9.91961268E-001
   2.40000000E+002   9.92454187E-001   6.51046874E-001   9.92454049E-001
   2.45000000E+002   9.93024279E-001   6.51047080E-001   9.93024154E-001
