# ./jetvheto -in n3lo-fixed-order/H125-LHC13-R04-mb-0-mt-1725-xmur050-xmuf025-log.fxd -xQ 0.25 -out benchmarks-n3lo-smallR/H125-LHC13-R04-mb-0-mt-1725-xmur050-xmuf025-xQ025-NNLO+NNLLb.R0-1.0.res -scheme b -order 2 -ptmax 500.01 -small-r -fixed_order 2 -loop-mass t -R0 1.0
# process = H    
# collider = pp   
# rts =  13000.000
# M   =    125.000
# muR =     62.500
# muF =     31.250
# Q   =     31.250
# p   =      5.000
# include_c1_squared =   F
# loop_mass  = t   
# alphas(MZ) =    0.11800
# alphas(M) =    0.11264
# alphas(muR) =    0.12516
# Rjet =      0.400
# order = NNLL
# pdf name and set = PDF4LHC15_nnlo_mc.LHgrid,    0
# matching scheme = b
# total cross sections [nb] at LO, NLOdiff, NNLOdiff, N3LOdiff =     0.014513    0.020714    0.009723    0.001827
#----------------------------------------------------------------------
# the lines that follow give the jet-veto efficiencies as a function of pt
#         pt            matched eff      resummed eff     fixed-order eff
   2.00000000E+001   3.73716763E-001   4.86065314E-001   3.17487847E-001
   2.50000000E+001   4.56432307E-001   5.57559001E-001   4.26754407E-001
   3.00000000E+001   5.27124473E-001   6.00214271E-001   5.11966558E-001
   3.50000000E+001   5.88151500E-001   6.23657957E-001   5.80470117E-001
   4.00000000E+001   6.40339819E-001   6.36048501E-001   6.36364792E-001
   4.50000000E+001   6.84745628E-001   6.42620305E-001   6.82611528E-001
   5.00000000E+001   7.22737357E-001   6.46207398E-001   7.21540031E-001
   5.50000000E+001   7.55145252E-001   6.48242223E-001   7.54444177E-001
   6.00000000E+001   7.83061985E-001   6.49443445E-001   7.82634803E-001
   6.50000000E+001   8.07247585E-001   6.50179722E-001   8.06977613E-001
   7.00000000E+001   8.28305104E-001   6.50646670E-001   8.28128874E-001
   7.50000000E+001   8.46506574E-001   6.50951975E-001   8.46387939E-001
   8.00000000E+001   8.62648177E-001   6.51157077E-001   8.62566302E-001
   8.50000000E+001   8.76763682E-001   6.51298228E-001   8.76705809E-001
   9.00000000E+001   8.89287916E-001   6.51397481E-001   8.89246129E-001
   9.50000000E+001   9.00271895E-001   6.51468630E-001   9.00241110E-001
   1.00000000E+002   9.10112828E-001   6.51520525E-001   9.10089763E-001
   1.05000000E+002   9.18916224E-001   6.51558974E-001   9.18898671E-001
   1.10000000E+002   9.26723262E-001   6.51587868E-001   9.26709709E-001
   1.15000000E+002   9.33792543E-001   6.51609864E-001   9.33781944E-001
   1.20000000E+002   9.40127942E-001   6.51626808E-001   9.40119549E-001
   1.25000000E+002   9.45740433E-001   6.51640003E-001   9.45733708E-001
   1.30000000E+002   9.50854296E-001   6.51650381E-001   9.50848857E-001
   1.35000000E+002   9.55457084E-001   6.51658620E-001   9.55452646E-001
   1.40000000E+002   9.59633185E-001   6.51665216E-001   9.59629530E-001
   1.45000000E+002   9.63457422E-001   6.51670540E-001   9.63454390E-001
   1.50000000E+002   9.66878640E-001   6.51674868E-001   9.66876104E-001
   1.55000000E+002   9.69988893E-001   6.51678411E-001   9.69986758E-001
   1.60000000E+002   9.72839824E-001   6.51681331E-001   9.72838016E-001
   1.65000000E+002   9.75432732E-001   6.51683751E-001   9.75431192E-001
   1.70000000E+002   9.77761807E-001   6.51685769E-001   9.77760487E-001
   1.75000000E+002   9.79890744E-001   6.51687460E-001   9.79889608E-001
   1.80000000E+002   9.81838757E-001   6.51688884E-001   9.81837773E-001
   1.85000000E+002   9.83600801E-001   6.51690090E-001   9.83599946E-001
   1.90000000E+002   9.85233397E-001   6.51691115E-001   9.85232651E-001
   1.95000000E+002   9.86736797E-001   6.51691991E-001   9.86736143E-001
   2.00000000E+002   9.88086550E-001   6.51692741E-001   9.88085975E-001
   2.05000000E+002   9.89343177E-001   6.51693387E-001   9.89342669E-001
   2.10000000E+002   9.90502445E-001   6.51693945E-001   9.90501995E-001
   2.15000000E+002   9.91508623E-001   6.51694429E-001   9.91508223E-001
   2.20000000E+002   9.92461739E-001   6.51694850E-001   9.92461383E-001
   2.25000000E+002   9.93347054E-001   6.51695217E-001   9.93346737E-001
   2.30000000E+002   9.94132719E-001   6.51695538E-001   9.94132434E-001
   2.35000000E+002   9.94850398E-001   6.51695820E-001   9.94850142E-001
   2.40000000E+002   9.95496971E-001   6.51696068E-001   9.95496740E-001
   2.45000000E+002   9.96106645E-001   6.51696287E-001   9.96106437E-001
