# ./jetvheto -in n3lo-fixed-order/H125-LHC13-R04-mb-475-mt-1725-xmur200-xmuf200-log.fxd -xQ 0.25 -out benchmarks-n3lo-smallR/H125-LHC13-R04-mb-475-mt-1725-xmur200-xmuf200-xQ025-NNLO+NNLLa.res -scheme a -order 2 -ptmax 500.01 -fixed_order 2 -loop-mass t+b
# process = H    
# collider = pp   
# rts =  13000.000
# M   =    125.000
# muR =    250.000
# muF =    250.000
# Q   =     31.250
# p   =      5.000
# include_c1_squared =   F
# loop_mass  = t+b 
# alphas(MZ) =    0.11800
# alphas(M) =    0.11264
# alphas(muR) =    0.10244
# Rjet =      0.400
# order = NNLL
# pdf name and set = PDF4LHC15_nnlo_mc.LHgrid,    0
# matching scheme = a
# total cross sections [nb] at LO, NLOdiff, NNLOdiff, N3LOdiff =     0.010658    0.014649    0.010464    0.005358
#----------------------------------------------------------------------
# the lines that follow give the jet-veto efficiencies as a function of pt
#         pt            matched eff      resummed eff     fixed-order eff
   2.00000000E+001   5.09815600E-001   5.65647993E-001   5.35127193E-001
   2.50000000E+001   5.95907458E-001   6.37716296E-001   6.12011630E-001
   3.00000000E+001   6.60964406E-001   6.79757988E-001   6.70544774E-001
   3.50000000E+001   7.11287193E-001   7.02506655E-001   7.16922826E-001
   4.00000000E+001   7.51076486E-001   7.14412639E-001   7.54454779E-001
   4.50000000E+001   7.83294718E-001   7.20691121E-001   7.85384748E-001
   5.00000000E+001   8.09915994E-001   7.24106775E-001   8.11251726E-001
   5.50000000E+001   8.32212589E-001   7.26040668E-001   8.33093904E-001
   6.00000000E+001   8.51069169E-001   7.27181036E-001   8.51667304E-001
   6.50000000E+001   8.67280482E-001   7.27879541E-001   8.67697021E-001
   7.00000000E+001   8.81317210E-001   7.28322348E-001   8.81614063E-001
   7.50000000E+001   8.93493274E-001   7.28611788E-001   8.93709135E-001
   8.00000000E+001   9.04190345E-001   7.28806198E-001   9.04350221E-001
   8.50000000E+001   9.13539608E-001   7.28939975E-001   9.13659935E-001
   9.00000000E+001   9.21795633E-001   7.29034033E-001   9.21887551E-001
   9.50000000E+001   9.29092376E-001   7.29101456E-001   9.29163519E-001
   1.00000000E+002   9.35540373E-001   7.29150630E-001   9.35596095E-001
   1.05000000E+002   9.41354102E-001   7.29187062E-001   9.41398238E-001
   1.10000000E+002   9.46528841E-001   7.29214439E-001   9.46564151E-001
   1.15000000E+002   9.51178902E-001   7.29235280E-001   9.51207413E-001
   1.20000000E+002   9.55343276E-001   7.29251335E-001   9.55366494E-001
   1.25000000E+002   9.59084789E-001   7.29263836E-001   9.59103844E-001
   1.30000000E+002   9.62462017E-001   7.29273670E-001   9.62477770E-001
   1.35000000E+002   9.65537501E-001   7.29281476E-001   9.65550615E-001
   1.40000000E+002   9.68316770E-001   7.29287726E-001   9.68327755E-001
   1.45000000E+002   9.70833689E-001   7.29292769E-001   9.70842945E-001
   1.50000000E+002   9.73133193E-001   7.29296870E-001   9.73141036E-001
   1.55000000E+002   9.75221384E-001   7.29300227E-001   9.75228063E-001
   1.60000000E+002   9.77139908E-001   7.29302993E-001   9.77145625E-001
   1.65000000E+002   9.78891443E-001   7.29305286E-001   9.78896359E-001
   1.70000000E+002   9.80486752E-001   7.29307198E-001   9.80490997E-001
   1.75000000E+002   9.81924159E-001   7.29308800E-001   9.81927840E-001
   1.80000000E+002   9.83268294E-001   7.29310150E-001   9.83271498E-001
   1.85000000E+002   9.84501729E-001   7.29311292E-001   9.84504528E-001
   1.90000000E+002   9.85616314E-001   7.29312263E-001   9.85618768E-001
   1.95000000E+002   9.86649550E-001   7.29313093E-001   9.86651708E-001
   2.00000000E+002   9.87591118E-001   7.29313804E-001   9.87593023E-001
   2.05000000E+002   9.88466308E-001   7.29314416E-001   9.88467994E-001
   2.10000000E+002   9.89274856E-001   7.29314945E-001   9.89276353E-001
   2.15000000E+002   9.90019498E-001   7.29315403E-001   9.90020830E-001
   2.20000000E+002   9.90704277E-001   7.29315801E-001   9.90705465E-001
   2.25000000E+002   9.91332266E-001   7.29316149E-001   9.91333330E-001
   2.30000000E+002   9.91922470E-001   7.29316454E-001   9.91923423E-001
   2.35000000E+002   9.92473014E-001   7.29316721E-001   9.92473871E-001
   2.40000000E+002   9.92960025E-001   7.29316956E-001   9.92960797E-001
   2.45000000E+002   9.93426534E-001   7.29317163E-001   9.93427231E-001
