# ./jetvheto -in n3lo-fixed-order/H125-LHC13-R04-mb-475-mt-1725-xmur100-xmuf050-log.fxd -xQ 0.5 -out benchmarks-n3lo-smallR/H125-LHC13-R04-mb-475-mt-1725-xmur100-xmuf050-xQ050-NNLO+NNLLb.R0-1.0.res -scheme b -order 2 -ptmax 500.01 -fixed_order 2 -small-r -loop-mass t+b -R0 1.0
# process = H    
# collider = pp   
# rts =  13000.000
# M   =    125.000
# muR =    125.000
# muF =     62.500
# Q   =     62.500
# p   =      5.000
# include_c1_squared =   F
# loop_mass  = t+b 
# alphas(MZ) =    0.11800
# alphas(M) =    0.11264
# alphas(muR) =    0.11264
# Rjet =      0.400
# order = NNLL
# pdf name and set = PDF4LHC15_nnlo_mc.LHgrid,    0
# matching scheme = b
# total cross sections [nb] at LO, NLOdiff, NNLOdiff, N3LOdiff =     0.011575    0.016866    0.010424    0.004163
#----------------------------------------------------------------------
# the lines that follow give the jet-veto efficiencies as a function of pt
#         pt            matched eff      resummed eff     fixed-order eff
   2.00000000E+001   3.87358013E-001   4.86469231E-001   3.01797175E-001
   2.50000000E+001   4.71142317E-001   5.67624433E-001   4.12444386E-001
   3.00000000E+001   5.40384352E-001   6.25847447E-001   4.98409551E-001
   3.50000000E+001   5.98060860E-001   6.67116498E-001   5.67166648E-001
   4.00000000E+001   6.46310664E-001   6.95877177E-001   6.23168191E-001
   4.50000000E+001   6.87418826E-001   7.15454430E-001   6.69933084E-001
   5.00000000E+001   7.22519620E-001   7.28417070E-001   7.09277749E-001
   5.50000000E+001   7.52653708E-001   7.36767770E-001   7.42632321E-001
   6.00000000E+001   7.78834865E-001   7.42030036E-001   7.71258431E-001
   6.50000000E+001   8.01674309E-001   7.45302851E-001   7.95947126E-001
   7.00000000E+001   8.21849098E-001   7.47334786E-001   8.17511462E-001
   7.50000000E+001   8.39526289E-001   7.48607877E-001   8.36227208E-001
   8.00000000E+001   8.55257978E-001   7.49419609E-001   8.52733853E-001
   8.50000000E+001   8.69300710E-001   7.49948951E-001   8.67355329E-001
   9.00000000E+001   8.81699459E-001   7.50302916E-001   8.80188173E-001
   9.50000000E+001   8.92727365E-001   7.50545648E-001   8.91543074E-001
   1.00000000E+002   9.02647972E-001   7.50716127E-001   9.01711868E-001
   1.05000000E+002   9.11534729E-001   7.50838519E-001   9.10788355E-001
   1.10000000E+002   9.19458835E-001   7.50928150E-001   9.18858861E-001
   1.15000000E+002   9.26641069E-001   7.50994963E-001   9.26154870E-001
   1.20000000E+002   9.33088396E-001   7.51045560E-001   9.32691413E-001
   1.25000000E+002   9.38970343E-001   7.51084420E-001   9.38643846E-001
   1.30000000E+002   9.44229876E-001   7.51114646E-001   9.43959515E-001
   1.35000000E+002   9.48994632E-001   7.51138422E-001   9.48769326E-001
   1.40000000E+002   9.53352603E-001   7.51157318E-001   9.53163692E-001
   1.45000000E+002   9.57297007E-001   7.51172475E-001   9.57137703E-001
   1.50000000E+002   9.60913091E-001   7.51184736E-001   9.60778030E-001
   1.55000000E+002   9.64199616E-001   7.51194733E-001   9.64084524E-001
   1.60000000E+002   9.67189283E-001   7.51202942E-001   9.67090738E-001
   1.65000000E+002   9.69903029E-001   7.51209727E-001   9.69818268E-001
   1.70000000E+002   9.72376320E-001   7.51215370E-001   9.72303105E-001
   1.75000000E+002   9.74670440E-001   7.51220091E-001   9.74606939E-001
   1.80000000E+002   9.76735887E-001   7.51224061E-001   9.76680599E-001
   1.85000000E+002   9.78658850E-001   7.51227416E-001   9.78610537E-001
   1.90000000E+002   9.80411305E-001   7.51230265E-001   9.80368941E-001
   1.95000000E+002   9.82015510E-001   7.51232696E-001   9.81978238E-001
   2.00000000E+002   9.83482046E-001   7.51234778E-001   9.83449152E-001
   2.05000000E+002   9.84835650E-001   7.51236568E-001   9.84806533E-001
   2.10000000E+002   9.86053341E-001   7.51238114E-001   9.86027493E-001
   2.15000000E+002   9.87207395E-001   7.51239453E-001   9.87184387E-001
   2.20000000E+002   9.88269005E-001   7.51240617E-001   9.88248471E-001
   2.25000000E+002   9.89214328E-001   7.51241632E-001   9.89195956E-001
   2.30000000E+002   9.90123816E-001   7.51242520E-001   9.90107340E-001
   2.35000000E+002   9.90929094E-001   7.51243299E-001   9.90914285E-001
   2.40000000E+002   9.91684369E-001   7.51243985E-001   9.91671028E-001
   2.45000000E+002   9.92365653E-001   7.51244590E-001   9.92353610E-001
