# ./jetvheto -in n3lo-fixed-order/H125-LHC13-R04-mb-475-mt-1725-xmur050-xmuf050-log.fxd -xQ 0.125 -out benchmarks-n3lo-smallR/H125-LHC13-R04-mb-475-mt-1725-xmur050-xmuf050-xQ125-N3LO+NNLLb.res -scheme b -order 2 -ptmax 500.01 -fixed_order 3 -loop-mass t+b
# process = H    
# collider = pp   
# rts =  13000.000
# M   =    125.000
# muR =     62.500
# muF =     62.500
# Q   =     15.625
# p   =      5.000
# include_c1_squared =   F
# loop_mass  = t+b 
# alphas(MZ) =    0.11800
# alphas(M) =    0.11264
# alphas(muR) =    0.12516
# Rjet =      0.400
# order = NNLL
# pdf name and set = PDF4LHC15_nnlo_mc.LHgrid,    0
# matching scheme = b
# total cross sections [nb] at LO, NLOdiff, NNLOdiff, N3LOdiff =     0.014147    0.020254    0.008998    0.001413
#----------------------------------------------------------------------
# the lines that follow give the jet-veto efficiencies as a function of pt
#         pt            matched eff      resummed eff     fixed-order eff
   2.00000000E+001   4.23741970E-001   4.21717690E-001   4.22880362E-001
   2.50000000E+001   5.11107785E-001   4.35622286E-001   5.10871357E-001
   3.00000000E+001   5.86585935E-001   4.40153166E-001   5.86554172E-001
   3.50000000E+001   6.46965600E-001   4.41850950E-001   6.46974526E-001
   4.00000000E+001   6.94042760E-001   4.42573331E-001   6.94053894E-001
   4.50000000E+001   7.35560923E-001   4.42914029E-001   7.35572065E-001
   5.00000000E+001   7.68976391E-001   4.43088519E-001   7.68984657E-001
   5.50000000E+001   7.98066031E-001   4.43184050E-001   7.98072300E-001
   6.00000000E+001   8.22053491E-001   4.43239301E-001   8.22057983E-001
   6.50000000E+001   8.44156988E-001   4.43272752E-001   8.44160448E-001
   7.00000000E+001   8.61394950E-001   4.43293805E-001   8.61397413E-001
   7.50000000E+001   8.76787897E-001   4.43307502E-001   8.76789719E-001
   8.00000000E+001   8.90690568E-001   4.43316674E-001   8.90691953E-001
   8.50000000E+001   9.03049297E-001   4.43322972E-001   9.03050366E-001
   9.00000000E+001   9.13895644E-001   4.43327394E-001   9.13896477E-001
   9.50000000E+001   9.22638945E-001   4.43330561E-001   9.22639584E-001
   1.00000000E+002   9.30923570E-001   4.43332868E-001   9.30924075E-001
   1.05000000E+002   9.37618563E-001   4.43334577E-001   9.37618957E-001
   1.10000000E+002   9.43720603E-001   4.43335861E-001   9.43720915E-001
   1.15000000E+002   9.49501838E-001   4.43336838E-001   9.49502090E-001
   1.20000000E+002   9.54678662E-001   4.43337590E-001   9.54678868E-001
   1.25000000E+002   9.59003650E-001   4.43338176E-001   9.59003817E-001
   1.30000000E+002   9.62763974E-001   4.43338636E-001   9.62764111E-001
   1.35000000E+002   9.66490344E-001   4.43339002E-001   9.66490458E-001
   1.40000000E+002   9.69880603E-001   4.43339295E-001   9.69880698E-001
   1.45000000E+002   9.72807280E-001   4.43339531E-001   9.72807360E-001
   1.50000000E+002   9.75102839E-001   4.43339723E-001   9.75102905E-001
   1.55000000E+002   9.77708711E-001   4.43339880E-001   9.77708768E-001
   1.60000000E+002   9.80038742E-001   4.43340010E-001   9.80038790E-001
   1.65000000E+002   9.81490570E-001   4.43340117E-001   9.81490611E-001
   1.70000000E+002   9.83324281E-001   4.43340206E-001   9.83324317E-001
   1.75000000E+002   9.85049263E-001   4.43340281E-001   9.85049293E-001
   1.80000000E+002   9.86367538E-001   4.43340345E-001   9.86367565E-001
   1.85000000E+002   9.87583937E-001   4.43340398E-001   9.87583960E-001
   1.90000000E+002   9.88819849E-001   4.43340444E-001   9.88819869E-001
   1.95000000E+002   9.89958214E-001   4.43340482E-001   9.89958231E-001
   2.00000000E+002   9.90961393E-001   4.43340516E-001   9.90961409E-001
   2.05000000E+002   9.91762712E-001   4.43340544E-001   9.91762726E-001
   2.10000000E+002   9.92560867E-001   4.43340569E-001   9.92560879E-001
   2.15000000E+002   9.93188158E-001   4.43340591E-001   9.93188169E-001
   2.20000000E+002   9.94072426E-001   4.43340609E-001   9.94072436E-001
   2.25000000E+002   9.94534049E-001   4.43340626E-001   9.94534058E-001
   2.30000000E+002   9.95094690E-001   4.43340640E-001   9.95094697E-001
   2.35000000E+002   9.95512520E-001   4.43340652E-001   9.95512527E-001
   2.40000000E+002   9.95960629E-001   4.43340663E-001   9.95960635E-001
   2.45000000E+002   9.96474552E-001   4.43340673E-001   9.96474558E-001
