# ./jetvheto -in n3lo-fixed-order/H125-LHC13-R04-mb-0-mt-1725-xmur100-xmuf050-log.fxd -xQ 0.25 -out benchmarks-n3lo-smallR/H125-LHC13-R04-mb-0-mt-1725-xmur100-xmuf050-xQ025-N3LO+NNLLb.R0-2.0.res -scheme b -order 2 -ptmax 500.01 -small-r -fixed_order 3 -loop-mass t -R0 2.0
# process = H    
# collider = pp   
# rts =  13000.000
# M   =    125.000
# muR =    125.000
# muF =     62.500
# Q   =     31.250
# p   =      5.000
# include_c1_squared =   F
# loop_mass  = t   
# alphas(MZ) =    0.11800
# alphas(M) =    0.11264
# alphas(muR) =    0.11264
# Rjet =      0.400
# order = NNLL
# pdf name and set = PDF4LHC15_nnlo_mc.LHgrid,    0
# matching scheme = b
# total cross sections [nb] at LO, NLOdiff, NNLOdiff, N3LOdiff =     0.012997    0.017347    0.010424    0.004163
#----------------------------------------------------------------------
# the lines that follow give the jet-veto efficiencies as a function of pt
#         pt            matched eff      resummed eff     fixed-order eff
   2.00000000E+001   4.33400492E-001   5.34609940E-001   4.15356219E-001
   2.50000000E+001   5.18015243E-001   6.08392895E-001   5.08719955E-001
   3.00000000E+001   5.89680427E-001   6.52101489E-001   5.85226468E-001
   3.50000000E+001   6.48155352E-001   6.76013846E-001   6.45994416E-001
   4.00000000E+001   6.95033284E-001   6.88616571E-001   6.93925358E-001
   4.50000000E+001   7.35452273E-001   6.95289559E-001   7.34878042E-001
   5.00000000E+001   7.68776371E-001   6.98928370E-001   7.68458672E-001
   5.50000000E+001   7.97175370E-001   7.00991395E-001   7.96994090E-001
   6.00000000E+001   8.20997044E-001   7.02208868E-001   8.20887675E-001
   6.50000000E+001   8.42461346E-001   7.02954959E-001   8.42394793E-001
   7.00000000E+001   8.59783286E-001   7.03428073E-001   8.59739714E-001
   7.50000000E+001   8.75068745E-001   7.03737384E-001   8.75039666E-001
   8.00000000E+001   8.88719624E-001   7.03945167E-001   8.88699874E-001
   8.50000000E+001   9.00801451E-001   7.04088158E-001   9.00787747E-001
   9.00000000E+001   9.11454737E-001   7.04188701E-001   9.11445028E-001
   9.50000000E+001   9.20290041E-001   7.04260775E-001   9.20282864E-001
   1.00000000E+002   9.28525357E-001   7.04313344E-001   9.28520035E-001
   1.05000000E+002   9.35322170E-001   7.04352291E-001   9.35318080E-001
   1.10000000E+002   9.41500391E-001   7.04381559E-001   9.41497221E-001
   1.15000000E+002   9.47228271E-001   7.04403840E-001   9.47225803E-001
   1.20000000E+002   9.52388212E-001   7.04421004E-001   9.52386268E-001
   1.25000000E+002   9.56839272E-001   7.04434369E-001   9.56837706E-001
   1.30000000E+002   9.60719990E-001   7.04444882E-001   9.60718713E-001
   1.35000000E+002   9.64428133E-001   7.04453228E-001   9.64427093E-001
   1.40000000E+002   9.67811630E-001   7.04459910E-001   9.67810777E-001
   1.45000000E+002   9.70810348E-001   7.04465302E-001   9.70809639E-001
   1.50000000E+002   9.73314020E-001   7.04469686E-001   9.73313419E-001
   1.55000000E+002   9.75896049E-001   7.04473275E-001   9.75895546E-001
   1.60000000E+002   9.78223221E-001   7.04476233E-001   9.78222797E-001
   1.65000000E+002   9.79917082E-001   7.04478684E-001   9.79916714E-001
   1.70000000E+002   9.81799182E-001   7.04480728E-001   9.81798867E-001
   1.75000000E+002   9.83523111E-001   7.04482441E-001   9.83522840E-001
   1.80000000E+002   9.84938378E-001   7.04483884E-001   9.84938142E-001
   1.85000000E+002   9.86243885E-001   7.04485105E-001   9.86243680E-001
   1.90000000E+002   9.87518272E-001   7.04486144E-001   9.87518092E-001
   1.95000000E+002   9.88690804E-001   7.04487030E-001   9.88690647E-001
   2.00000000E+002   9.89742916E-001   7.04487791E-001   9.89742777E-001
   2.05000000E+002   9.90628199E-001   7.04488445E-001   9.90628076E-001
   2.10000000E+002   9.91475395E-001   7.04489010E-001   9.91475286E-001
   2.15000000E+002   9.92193977E-001   7.04489500E-001   9.92193880E-001
   2.20000000E+002   9.93044359E-001   7.04489926E-001   9.93044272E-001
   2.25000000E+002   9.93602869E-001   7.04490298E-001   9.93602792E-001
   2.30000000E+002   9.94218334E-001   7.04490623E-001   9.94218265E-001
   2.35000000E+002   9.94704446E-001   7.04490909E-001   9.94704384E-001
   2.40000000E+002   9.95200619E-001   7.04491160E-001   9.95200562E-001
   2.45000000E+002   9.95724358E-001   7.04491382E-001   9.95724307E-001
