# ./jetvheto -in n3lo-fixed-order/H125-LHC13-R04-mb-0-mt-1725-xmur100-xmuf100-log.fxd -xQ 0.5 -out benchmarks-n3lo-smallR/H125-LHC13-R04-mb-0-mt-1725-xmur100-xmuf100-xQ050-NNLO+NNLLa.R0-2.0.res -scheme a -order 2 -ptmax 500.01 -small-r -fixed_order 2 -loop-mass t -R0 2.0
# process = H    
# collider = pp   
# rts =  13000.000
# M   =    125.000
# muR =    125.000
# muF =    125.000
# Q   =     62.500
# p   =      5.000
# include_c1_squared =   F
# loop_mass  = t   
# alphas(MZ) =    0.11800
# alphas(M) =    0.11264
# alphas(muR) =    0.11264
# Rjet =      0.400
# order = NNLL
# pdf name and set = PDF4LHC15_nnlo_mc.LHgrid,    0
# matching scheme = a
# total cross sections [nb] at LO, NLOdiff, NNLOdiff, N3LOdiff =     0.013801    0.017514    0.010146    0.003834
#----------------------------------------------------------------------
# the lines that follow give the jet-veto efficiencies as a function of pt
#         pt            matched eff      resummed eff     fixed-order eff
   2.00000000E+001   5.04526228E-001   5.33568009E-001   5.12111256E-001
   2.50000000E+001   5.90779744E-001   6.14027396E-001   5.93117916E-001
   3.00000000E+001   6.57468655E-001   6.70849634E-001   6.55183932E-001
   3.50000000E+001   7.09744246E-001   7.10496251E-001   7.04312652E-001
   4.00000000E+001   7.51189787E-001   7.37632918E-001   7.44112204E-001
   4.50000000E+001   7.84271735E-001   7.55719478E-001   7.76741158E-001
   5.00000000E+001   8.11169873E-001   7.67391299E-001   8.03999724E-001
   5.50000000E+001   8.33306871E-001   7.74670273E-001   8.26956486E-001
   6.00000000E+001   8.51933397E-001   7.79073182E-001   8.46582419E-001
   6.50000000E+001   8.67811079E-001   7.81678817E-001   8.63449624E-001
   7.00000000E+001   8.81433779E-001   7.83204922E-001   8.77952928E-001
   7.50000000E+001   8.93404175E-001   7.84100315E-001   8.90657633E-001
   8.00000000E+001   9.03941263E-001   7.84632248E-001   9.01784587E-001
   8.50000000E+001   9.13191766E-001   7.84954747E-001   9.11498483E-001
   9.00000000E+001   9.21431177E-001   7.85155357E-001   9.20097826E-001
   9.50000000E+001   9.28721536E-001   7.85283740E-001   9.27666371E-001
   1.00000000E+002   9.35257277E-001   7.85368326E-001   9.34417045E-001
   1.05000000E+002   9.41107725E-001   7.85425657E-001   9.40434122E-001
   1.10000000E+002   9.46292758E-001   7.85465565E-001   9.45748990E-001
   1.15000000E+002   9.51011435E-001   7.85494035E-001   9.50569353E-001
   1.20000000E+002   9.55229249E-001   7.85514800E-001   9.54867362E-001
   1.25000000E+002   9.59051712E-001   7.85530247E-001   9.58753493E-001
   1.30000000E+002   9.62515230E-001   7.85541943E-001   9.62267892E-001
   1.35000000E+002   9.65635799E-001   7.85550939E-001   9.65429419E-001
   1.40000000E+002   9.68461202E-001   7.85557954E-001   9.68287981E-001
   1.45000000E+002   9.71062147E-001   7.85563493E-001   9.70915959E-001
   1.50000000E+002   9.73383598E-001   7.85567915E-001   9.73259576E-001
   1.55000000E+002   9.75532500E-001   7.85571481E-001   9.75426757E-001
   1.60000000E+002   9.77496171E-001   7.85574381E-001   9.77405590E-001
   1.65000000E+002   9.79274106E-001   7.85576760E-001   9.79196168E-001
   1.70000000E+002   9.80909059E-001   7.85578725E-001   9.80841717E-001
   1.75000000E+002   9.82378972E-001   7.85580360E-001   9.82320552E-001
   1.80000000E+002   9.83743201E-001   7.85581728E-001   9.83692327E-001
   1.85000000E+002   9.84980952E-001   7.85582880E-001   9.84936490E-001
   1.90000000E+002   9.86128022E-001   7.85583855E-001   9.86089030E-001
   1.95000000E+002   9.87189030E-001   7.85584683E-001   9.87154723E-001
   2.00000000E+002   9.88150393E-001   7.85585392E-001   9.88120114E-001
   2.05000000E+002   9.89048457E-001   7.85585999E-001   9.89021653E-001
   2.10000000E+002   9.89860179E-001   7.85586523E-001   9.89836384E-001
   2.15000000E+002   9.90600815E-001   7.85586976E-001   9.90579634E-001
   2.20000000E+002   9.91296045E-001   7.85587369E-001   9.91277142E-001
   2.25000000E+002   9.91932048E-001   7.85587711E-001   9.91915136E-001
   2.30000000E+002   9.92521099E-001   7.85588010E-001   9.92505931E-001
   2.35000000E+002   9.93073813E-001   7.85588273E-001   9.93060180E-001
   2.40000000E+002   9.93569620E-001   7.85588503E-001   9.93557338E-001
   2.45000000E+002   9.94036194E-001   7.85588706E-001   9.94025107E-001
