# ./jetvheto -in n3lo-fixed-order/H125-LHC13-R04-mb-0-mt-1725-xmur050-xmuf050-log.fxd -xQ 0.25 -out benchmarks-n3lo-smallR/H125-LHC13-R04-mb-0-mt-1725-xmur050-xmuf050-xQ025-NNLO+NNLLb.R0-0.5.res -scheme b -order 2 -ptmax 500.01 -small-r -fixed_order 2 -loop-mass t -R0 0.5
# process = H    
# collider = pp   
# rts =  13000.000
# M   =    125.000
# muR =     62.500
# muF =     62.500
# Q   =     31.250
# p   =      5.000
# include_c1_squared =   F
# loop_mass  = t   
# alphas(MZ) =    0.11800
# alphas(M) =    0.11264
# alphas(muR) =    0.12516
# Rjet =      0.400
# order = NNLL
# pdf name and set = PDF4LHC15_nnlo_mc.LHgrid,    0
# matching scheme = b
# total cross sections [nb] at LO, NLOdiff, NNLOdiff, N3LOdiff =     0.015885    0.020561    0.008998    0.001413
#----------------------------------------------------------------------
# the lines that follow give the jet-veto efficiencies as a function of pt
#         pt            matched eff      resummed eff     fixed-order eff
   2.00000000E+001   3.88651347E-001   4.94477220E-001   3.37968833E-001
   2.50000000E+001   4.72287866E-001   5.64598482E-001   4.45490403E-001
   3.00000000E+001   5.42866544E-001   6.06116954E-001   5.29094091E-001
   3.50000000E+001   6.02916963E-001   6.28818276E-001   5.95850260E-001
   4.00000000E+001   6.53829462E-001   6.40777897E-001   6.50115846E-001
   4.50000000E+001   6.96968207E-001   6.47108811E-001   6.94939270E-001
   5.00000000E+001   7.33927288E-001   6.50560595E-001   7.32769177E-001
   5.50000000E+001   7.65052032E-001   6.52517424E-001   7.64361916E-001
   6.00000000E+001   7.91893567E-001   6.53672171E-001   7.91465371E-001
   6.50000000E+001   8.15113513E-001   6.54379801E-001   8.14838120E-001
   7.00000000E+001   8.35261429E-001   6.54828518E-001   8.35078651E-001
   7.50000000E+001   8.52695569E-001   6.55121875E-001   8.52570605E-001
   8.00000000E+001   8.68025004E-001   6.55318940E-001   8.67937405E-001
   8.50000000E+001   8.81540951E-001   6.55454553E-001   8.81478135E-001
   9.00000000E+001   8.93457789E-001   6.55549910E-001   8.93411828E-001
   9.50000000E+001   9.03902288E-001   6.55618264E-001   9.03868009E-001
   1.00000000E+002   9.13291971E-001   6.55668121E-001   9.13265993E-001
   1.05000000E+002   9.21509384E-001   6.55705058E-001   9.21489390E-001
   1.10000000E+002   9.28863432E-001   6.55732816E-001   9.28847842E-001
   1.15000000E+002   9.35463601E-001   6.55753947E-001   9.35451292E-001
   1.20000000E+002   9.41403314E-001   6.55770225E-001   9.41393487E-001
   1.25000000E+002   9.46798380E-001   6.55782901E-001   9.46790455E-001
   1.30000000E+002   9.51562788E-001   6.55792872E-001   9.51556334E-001
   1.35000000E+002   9.55867334E-001   6.55800786E-001   9.55862035E-001
   1.40000000E+002   9.59793092E-001   6.55807123E-001   9.59788706E-001
   1.45000000E+002   9.63360618E-001   6.55812238E-001   9.63356960E-001
   1.50000000E+002   9.66626810E-001   6.55816395E-001   9.66623739E-001
   1.55000000E+002   9.69562072E-001   6.55819799E-001   9.69559478E-001
   1.60000000E+002   9.72230357E-001   6.55822604E-001   9.72228153E-001
   1.65000000E+002   9.74641092E-001   6.55824929E-001   9.74639208E-001
   1.70000000E+002   9.76858698E-001   6.55826867E-001   9.76857081E-001
   1.75000000E+002   9.78871054E-001   6.55828492E-001   9.78869658E-001
   1.80000000E+002   9.80683672E-001   6.55829860E-001   9.80682463E-001
   1.85000000E+002   9.82362781E-001   6.55831019E-001   9.82361728E-001
   1.90000000E+002   9.83897750E-001   6.55832004E-001   9.83896830E-001
   1.95000000E+002   9.85297779E-001   6.55832845E-001   9.85296972E-001
   2.00000000E+002   9.86579068E-001   6.55833566E-001   9.86578358E-001
   2.05000000E+002   9.87753296E-001   6.55834186E-001   9.87752669E-001
   2.10000000E+002   9.88805005E-001   6.55834722E-001   9.88804449E-001
   2.15000000E+002   9.89800421E-001   6.55835187E-001   9.89799927E-001
   2.20000000E+002   9.90709881E-001   6.55835591E-001   9.90709441E-001
   2.25000000E+002   9.91517439E-001   6.55835944E-001   9.91517046E-001
   2.30000000E+002   9.92310854E-001   6.55836252E-001   9.92310501E-001
   2.35000000E+002   9.92993202E-001   6.55836523E-001   9.92992886E-001
   2.40000000E+002   9.93638487E-001   6.55836761E-001   9.93638203E-001
   2.45000000E+002   9.94228623E-001   6.55836972E-001   9.94228366E-001
