# ./jetvheto -in n3lo-fixed-order/H125-LHC13-R04-heft-xmur025-xmuf050-log.fxd -xQ 0.50 -out benchmarks-n3lo-smallR/H125-LHC13-R04-heft-xmur025-xmuf050-xQ050-NNLO+NNLLa.R0-1.0.res -scheme a -order 2 -ptmax 500.01 -fixed_order 2 -small-r -R0 1.0
# process = H    
# collider = pp   
# rts =  13000.000
# M   =    125.000
# muR =     31.250
# muF =     62.500
# Q   =     62.500
# p   =      5.000
# include_c1_squared =   F
# loop_mass  = none
# alphas(MZ) =    0.11800
# alphas(M) =    0.11264
# alphas(muR) =    0.14091
# Rjet =      0.400
# order = NNLL
# pdf name and set = PDF4LHC15_nnlo_mc.LHgrid,    0
# matching scheme = a
# total cross sections [nb] at LO, NLOdiff, NNLOdiff, N3LOdiff =     0.019087    0.023444    0.005009   -0.002663
#----------------------------------------------------------------------
# the lines that follow give the jet-veto efficiencies as a function of pt
#         pt            matched eff      resummed eff     fixed-order eff
   2.00000000E+001   4.81551323E-001   5.01810547E-001   4.19560537E-001
   2.50000000E+001   5.62475283E-001   5.69476509E-001   5.10716260E-001
   3.00000000E+001   6.26460553E-001   6.16061493E-001   5.83434226E-001
   3.50000000E+001   6.77479185E-001   6.47713738E-001   6.41987822E-001
   4.00000000E+001   7.18981260E-001   6.68737509E-001   6.90031233E-001
   4.50000000E+001   7.53239023E-001   6.82230618E-001   7.29956332E-001
   5.00000000E+001   7.81989388E-001   6.90514744E-001   7.63542120E-001
   5.50000000E+001   8.06400396E-001   6.95345048E-001   7.91973686E-001
   6.00000000E+001   8.27329438E-001   6.98008559E-001   8.16161222E-001
   6.50000000E+001   8.45594140E-001   6.99390849E-001   8.37000077E-001
   7.00000000E+001   8.61713866E-001   7.00059672E-001   8.55114547E-001
   7.50000000E+001   8.75764016E-001   7.00353018E-001   8.70689778E-001
   8.00000000E+001   8.88268428E-001   7.00459297E-001   8.84350942E-001
   8.50000000E+001   8.99392618E-001   7.00477895E-001   8.96350109E-001
   9.00000000E+001   9.09310124E-001   7.00459108E-001   9.06930305E-001
   9.50000000E+001   9.18034113E-001   7.00427192E-001   9.16158177E-001
   1.00000000E+002   9.25862343E-001   7.00393210E-001   9.24371811E-001
   1.05000000E+002   9.32776115E-001   7.00361777E-001   9.31582275E-001
   1.10000000E+002   9.39008597E-001   7.00334456E-001   9.38044868E-001
   1.15000000E+002   9.44563099E-001   7.00311441E-001   9.43779261E-001
   1.20000000E+002   9.49568121E-001   7.00292363E-001   9.48925946E-001
   1.25000000E+002   9.54081873E-001   7.00276674E-001   9.53552139E-001
   1.30000000E+002   9.58088684E-001   7.00263811E-001   9.57648838E-001
   1.35000000E+002   9.61741714E-001   7.00253268E-001   9.61374247E-001
   1.40000000E+002   9.65038452E-001   7.00244611E-001   9.64729653E-001
   1.45000000E+002   9.67977907E-001   7.00237485E-001   9.67716988E-001
   1.50000000E+002   9.70681118E-001   7.00231598E-001   9.70459499E-001
   1.55000000E+002   9.73105875E-001   7.00226716E-001   9.72916714E-001
   1.60000000E+002   9.75323263E-001   7.00222650E-001   9.75161046E-001
   1.65000000E+002   9.77309045E-001   7.00219251E-001   9.77169324E-001
   1.70000000E+002   9.79146380E-001   7.00216397E-001   9.79025530E-001
   1.75000000E+002   9.80838865E-001   7.00213990E-001   9.80733923E-001
   1.80000000E+002   9.82345191E-001   7.00211953E-001   9.82253720E-001
   1.85000000E+002   9.83733666E-001   7.00210221E-001   9.83653652E-001
   1.90000000E+002   9.85012071E-001   7.00208743E-001   9.84941842E-001
   1.95000000E+002   9.86164550E-001   7.00207477E-001   9.86102709E-001
   2.00000000E+002   9.87221660E-001   7.00206390E-001   9.87167038E-001
   2.05000000E+002   9.88208276E-001   7.00205451E-001   9.88159887E-001
   2.10000000E+002   9.89089603E-001   7.00204639E-001   9.89046616E-001
   2.15000000E+002   9.89922996E-001   7.00203934E-001   9.89884706E-001
   2.20000000E+002   9.90690346E-001   7.00203320E-001   9.90656152E-001
   2.25000000E+002   9.91359442E-001   7.00202783E-001   9.91328831E-001
   2.30000000E+002   9.92040999E-001   7.00202313E-001   9.92013530E-001
   2.35000000E+002   9.92623137E-001   7.00201900E-001   9.92598433E-001
   2.40000000E+002   9.93173971E-001   7.00201536E-001   9.93151705E-001
   2.45000000E+002   9.93684501E-001   7.00201215E-001   9.93664390E-001
