# ./jetvheto -in n3lo-fixed-order/H125-LHC13-R04-mb-0-mt-1725-xmur025-xmuf050-log.fxd -xQ 0.25 -out benchmarks-n3lo-smallR/H125-LHC13-R04-mb-0-mt-1725-xmur025-xmuf050-xQ025-NNLO+NNLLa.R0-0.5.res -scheme a -order 2 -ptmax 500.01 -small-r -fixed_order 2 -loop-mass t -R0 0.5
# process = H    
# collider = pp   
# rts =  13000.000
# M   =    125.000
# muR =     31.250
# muF =     62.500
# Q   =     31.250
# p   =      5.000
# include_c1_squared =   F
# loop_mass  = t   
# alphas(MZ) =    0.11800
# alphas(M) =    0.11264
# alphas(muR) =    0.14091
# Rjet =      0.400
# order = NNLL
# pdf name and set = PDF4LHC15_nnlo_mc.LHgrid,    0
# matching scheme = a
# total cross sections [nb] at LO, NLOdiff, NNLOdiff, N3LOdiff =     0.019855    0.024744    0.005009   -0.002663
#----------------------------------------------------------------------
# the lines that follow give the jet-veto efficiencies as a function of pt
#         pt            matched eff      resummed eff     fixed-order eff
   2.00000000E+001   4.44089754E-001   4.48044175E-001   4.32957478E-001
   2.50000000E+001   5.29991425E-001   5.10773827E-001   5.23268277E-001
   3.00000000E+001   5.98905953E-001   5.47814564E-001   5.94997758E-001
   3.50000000E+001   6.55100661E-001   5.68032265E-001   6.52852727E-001
   4.00000000E+001   7.01490609E-001   5.78672360E-001   7.00189076E-001
   4.50000000E+001   7.40211181E-001   5.84301441E-001   7.39439888E-001
   5.00000000E+001   7.73070015E-001   5.87369552E-001   7.72597069E-001
   5.50000000E+001   8.00662402E-001   5.89108547E-001   8.00363223E-001
   6.00000000E+001   8.24321385E-001   5.90134636E-001   8.24125039E-001
   6.50000000E+001   8.44722089E-001   5.90763381E-001   8.44589142E-001
   7.00000000E+001   8.62409134E-001   5.91162061E-001   8.62316742E-001
   7.50000000E+001   8.77628882E-001   5.91422698E-001   8.77562874E-001
   8.00000000E+001   8.90985683E-001   5.91597779E-001   8.90937501E-001
   8.50000000E+001   9.02722405E-001   5.91718264E-001   9.02686522E-001
   9.00000000E+001   9.13048015E-001   5.91802981E-001   9.13020832E-001
   9.50000000E+001   9.22038236E-001   5.91863709E-001   9.22017282E-001
   1.00000000E+002   9.30098425E-001   5.91908002E-001   9.30082050E-001
   1.05000000E+002   9.37114015E-001   5.91940818E-001   9.37101049E-001
   1.10000000E+002   9.43384116E-001   5.91965479E-001   9.43373741E-001
   1.15000000E+002   9.48977982E-001   5.91984252E-001   9.48969590E-001
   1.20000000E+002   9.53992426E-001   5.91998714E-001   9.53985574E-001
   1.25000000E+002   9.58528936E-001   5.92009975E-001   9.58523292E-001
   1.30000000E+002   9.62506079E-001   5.92018833E-001   9.62501393E-001
   1.35000000E+002   9.66102590E-001   5.92025864E-001   9.66098675E-001
   1.40000000E+002   9.69359852E-001   5.92031494E-001   9.69356558E-001
   1.45000000E+002   9.72292470E-001   5.92036038E-001   9.72289680E-001
   1.50000000E+002   9.74976390E-001   5.92039732E-001   9.74974013E-001
   1.55000000E+002   9.77374622E-001   5.92042756E-001   9.77372588E-001
   1.60000000E+002   9.79544543E-001   5.92045247E-001   9.79542793E-001
   1.65000000E+002   9.81489670E-001   5.92047313E-001   9.81488158E-001
   1.70000000E+002   9.83278478E-001   5.92049035E-001   9.83277166E-001
   1.75000000E+002   9.84903409E-001   5.92050478E-001   9.84902266E-001
   1.80000000E+002   9.86345488E-001   5.92051694E-001   9.86344489E-001
   1.85000000E+002   9.87678138E-001   5.92052723E-001   9.87677261E-001
   1.90000000E+002   9.88895315E-001   5.92053598E-001   9.88894543E-001
   1.95000000E+002   9.89993140E-001   5.92054345E-001   9.89992458E-001
   2.00000000E+002   9.90992395E-001   5.92054986E-001   9.90991790E-001
   2.05000000E+002   9.91909494E-001   5.92055537E-001   9.91908957E-001
   2.10000000E+002   9.92717662E-001   5.92056013E-001   9.92717184E-001
   2.15000000E+002   9.93487334E-001   5.92056426E-001   9.93486906E-001
   2.20000000E+002   9.94187428E-001   5.92056785E-001   9.94187045E-001
   2.25000000E+002   9.94791631E-001   5.92057099E-001   9.94791288E-001
   2.30000000E+002   9.95405384E-001   5.92057373E-001   9.95405075E-001
   2.35000000E+002   9.95916927E-001   5.92057613E-001   9.95916649E-001
   2.40000000E+002   9.96399866E-001   5.92057825E-001   9.96399614E-001
   2.45000000E+002   9.96840714E-001   5.92058012E-001   9.96840486E-001
