# ./jetvheto -in n3lo-fixed-order/H125-LHC13-R04-mb-0-mt-1725-xmur050-xmuf050-log.fxd -xQ 0.333 -out benchmarks-n3lo-smallR/H125-LHC13-R04-mb-0-mt-1725-xmur050-xmuf050-xQ033-NNLO+NNLLb.R0-2.0.res -scheme b -order 2 -ptmax 500.01 -small-r -fixed_order 2 -loop-mass t -R0 2.0
# process = H    
# collider = pp   
# rts =  13000.000
# M   =    125.000
# muR =     62.500
# muF =     62.500
# Q   =     41.625
# p   =      5.000
# include_c1_squared =   F
# loop_mass  = t   
# alphas(MZ) =    0.11800
# alphas(M) =    0.11264
# alphas(muR) =    0.12516
# Rjet =      0.400
# order = NNLL
# pdf name and set = PDF4LHC15_nnlo_mc.LHgrid,    0
# matching scheme = b
# total cross sections [nb] at LO, NLOdiff, NNLOdiff, N3LOdiff =     0.015885    0.020561    0.008998    0.001413
#----------------------------------------------------------------------
# the lines that follow give the jet-veto efficiencies as a function of pt
#         pt            matched eff      resummed eff     fixed-order eff
   2.00000000E+001   4.11268234E-001   4.96330581E-001   3.37968833E-001
   2.50000000E+001   4.92170684E-001   5.70633680E-001   4.45490403E-001
   3.00000000E+001   5.58678973E-001   6.20967807E-001   5.29094091E-001
   3.50000000E+001   6.14443524E-001   6.53629984E-001   5.95850260E-001
   4.00000000E+001   6.61744892E-001   6.73939975E-001   6.50115846E-001
   4.50000000E+001   7.02244249E-001   6.86194365E-001   6.94939270E-001
   5.00000000E+001   7.37421617E-001   6.93509313E-001   7.32769177E-001
   5.50000000E+001   7.67383712E-001   6.97906678E-001   7.64361916E-001
   6.00000000E+001   7.93474910E-001   7.00599556E-001   7.91465371E-001
   6.50000000E+001   8.16206811E-001   7.02289006E-001   8.14838120E-001
   7.00000000E+001   8.36032352E-001   7.03376628E-001   8.35078651E-001
   7.50000000E+001   8.53250058E-001   7.04094770E-001   8.52570605E-001
   8.00000000E+001   8.68431153E-001   7.04580406E-001   8.67937405E-001
   8.50000000E+001   8.81843545E-001   7.04916131E-001   8.81478135E-001
   9.00000000E+001   8.93686744E-001   7.05152948E-001   8.93411828E-001
   9.50000000E+001   9.04078043E-001   7.05323092E-001   9.03868009E-001
   1.00000000E+002   9.13428646E-001   7.05447394E-001   9.13265993E-001
   1.05000000E+002   9.21616941E-001   7.05539599E-001   9.21489390E-001
   1.10000000E+002   9.28948987E-001   7.05608952E-001   9.28847842E-001
   1.15000000E+002   9.35532342E-001   7.05661784E-001   9.35451292E-001
   1.20000000E+002   9.41459053E-001   7.05702503E-001   9.41393487E-001
   1.25000000E+002   9.46843959E-001   7.05734225E-001   9.46790455E-001
   1.30000000E+002   9.51600352E-001   7.05759184E-001   9.51556334E-001
   1.35000000E+002   9.55898513E-001   7.05779002E-001   9.55862035E-001
   1.40000000E+002   9.59819147E-001   7.05794873E-001   9.59788706E-001
   1.45000000E+002   9.63382529E-001   7.05807683E-001   9.63356960E-001
   1.50000000E+002   9.66645343E-001   7.05818099E-001   9.66623739E-001
   1.55000000E+002   9.69577833E-001   7.05826627E-001   9.69559478E-001
   1.60000000E+002   9.72243829E-001   7.05833655E-001   9.72228153E-001
   1.65000000E+002   9.74652663E-001   7.05839481E-001   9.74639208E-001
   1.70000000E+002   9.76868681E-001   7.05844338E-001   9.76857081E-001
   1.75000000E+002   9.78879702E-001   7.05848409E-001   9.78869658E-001
   1.80000000E+002   9.80691195E-001   7.05851839E-001   9.80682463E-001
   1.85000000E+002   9.82369350E-001   7.05854742E-001   9.82361728E-001
   1.90000000E+002   9.83903506E-001   7.05857211E-001   9.83896830E-001
   1.95000000E+002   9.85302840E-001   7.05859319E-001   9.85296972E-001
   2.00000000E+002   9.86583532E-001   7.05861126E-001   9.86578358E-001
   2.05000000E+002   9.87757246E-001   7.05862682E-001   9.87752669E-001
   2.10000000E+002   9.88808510E-001   7.05864025E-001   9.88804449E-001
   2.15000000E+002   9.89803541E-001   7.05865190E-001   9.89799927E-001
   2.20000000E+002   9.90712664E-001   7.05866203E-001   9.90709441E-001
   2.25000000E+002   9.91519929E-001   7.05867087E-001   9.91517046E-001
   2.30000000E+002   9.92313086E-001   7.05867860E-001   9.92310501E-001
   2.35000000E+002   9.92995208E-001   7.05868539E-001   9.92992886E-001
   2.40000000E+002   9.93640294E-001   7.05869137E-001   9.93638203E-001
   2.45000000E+002   9.94230254E-001   7.05869664E-001   9.94228366E-001
