# ./jetvheto -in n3lo-fixed-order/H125-LHC13-R04-mb-0-mt-1725-xmur100-xmuf050-log.fxd -xQ 0.5 -out benchmarks-n3lo-smallR/H125-LHC13-R04-mb-0-mt-1725-xmur100-xmuf050-xQ050-N3LO+NNLLa.res -scheme a -order 2 -ptmax 500.01 -fixed_order 3 -loop-mass t
# process = H    
# collider = pp   
# rts =  13000.000
# M   =    125.000
# muR =    125.000
# muF =     62.500
# Q   =     62.500
# p   =      5.000
# include_c1_squared =   F
# loop_mass  = t   
# alphas(MZ) =    0.11800
# alphas(M) =    0.11264
# alphas(muR) =    0.11264
# Rjet =      0.400
# order = NNLL
# pdf name and set = PDF4LHC15_nnlo_mc.LHgrid,    0
# matching scheme = a
# total cross sections [nb] at LO, NLOdiff, NNLOdiff, N3LOdiff =     0.012997    0.017347    0.010424    0.004163
#----------------------------------------------------------------------
# the lines that follow give the jet-veto efficiencies as a function of pt
#         pt            matched eff      resummed eff     fixed-order eff
   2.00000000E+001   4.56860980E-001   5.04961392E-001   4.69526017E-001
   2.50000000E+001   5.46025589E-001   5.90672256E-001   5.54239195E-001
   3.00000000E+001   6.18789594E-001   6.52256525E-001   6.23657046E-001
   3.50000000E+001   6.76682846E-001   6.95963221E-001   6.78794579E-001
   4.00000000E+001   7.22154521E-001   7.26461623E-001   7.22284509E-001
   4.50000000E+001   7.60381095E-001   7.47252260E-001   7.59442749E-001
   5.00000000E+001   7.91376694E-001   7.61043018E-001   7.89911987E-001
   5.50000000E+001   8.17387432E-001   7.69946872E-001   8.15803473E-001
   6.00000000E+001   8.38980283E-001   7.75572758E-001   8.37483214E-001
   6.50000000E+001   8.58300307E-001   7.79082729E-001   8.56997603E-001
   7.00000000E+001   8.73827663E-001   7.81269576E-001   8.72735442E-001
   7.50000000E+001   8.87507722E-001   7.82644854E-001   8.86617786E-001
   8.00000000E+001   8.99726998E-001   7.83525050E-001   8.99012317E-001
   8.50000000E+001   9.10550554E-001   7.84101122E-001   9.09980195E-001
   9.00000000E+001   9.20104736E-001   7.84487620E-001   9.19650032E-001
   9.50000000E+001   9.28032580E-001   7.84753446E-001   9.27669005E-001
   1.00000000E+002   9.35434689E-001   7.84940622E-001   9.35142966E-001
   1.05000000E+002   9.41546550E-001   7.85075293E-001   9.41311142E-001
   1.10000000E+002   9.47108788E-001   7.85174092E-001   9.46917758E-001
   1.15000000E+002   9.52271465E-001   7.85247849E-001   9.52115563E-001
   1.20000000E+002   9.56925911E-001   7.85303773E-001   9.56797888E-001
   1.25000000E+002   9.60942703E-001   7.85346768E-001   9.60836881E-001
   1.30000000E+002   9.64446275E-001   7.85380235E-001   9.64358296E-001
   1.35000000E+002   9.67796620E-001   7.85406580E-001   9.67723078E-001
   1.40000000E+002   9.70855063E-001   7.85427528E-001   9.70793249E-001
   1.45000000E+002   9.73566490E-001   7.85444340E-001   9.73514254E-001
   1.50000000E+002   9.75830431E-001   7.85457944E-001   9.75786047E-001
   1.55000000E+002   9.78166797E-001   7.85469040E-001   9.78128929E-001
   1.60000000E+002   9.80273008E-001   7.85478152E-001   9.80240550E-001
   1.65000000E+002   9.81805476E-001   7.85485687E-001   9.81777518E-001
   1.70000000E+002   9.83509450E-001   7.85491954E-001   9.83485281E-001
   1.75000000E+002   9.85070496E-001   7.85497198E-001   9.85049521E-001
   1.80000000E+002   9.86351963E-001   7.85501608E-001   9.86333689E-001
   1.85000000E+002   9.87534241E-001   7.85505336E-001   9.87518263E-001
   1.90000000E+002   9.88688611E-001   7.85508502E-001   9.88674596E-001
   1.95000000E+002   9.89750841E-001   7.85511203E-001   9.89738508E-001
   2.00000000E+002   9.90704041E-001   7.85513516E-001   9.90693154E-001
   2.05000000E+002   9.91506065E-001   7.85515506E-001   9.91496426E-001
   2.10000000E+002   9.92273696E-001   7.85517224E-001   9.92265138E-001
   2.15000000E+002   9.92924771E-001   7.85518712E-001   9.92917151E-001
   2.20000000E+002   9.93695551E-001   7.85520006E-001   9.93688751E-001
   2.25000000E+002   9.94201605E-001   7.85521134E-001   9.94195521E-001
   2.30000000E+002   9.94759425E-001   7.85522121E-001   9.94753968E-001
   2.35000000E+002   9.95199951E-001   7.85522988E-001   9.95195046E-001
   2.40000000E+002   9.95649670E-001   7.85523750E-001   9.95645251E-001
   2.45000000E+002   9.96124458E-001   7.85524422E-001   9.96120469E-001
