# ./jetvheto -in n3lo-fixed-order/H125-LHC13-R04-mb-475-mt-1725-xmur200-xmuf200-log.fxd -xQ 0.25 -out benchmarks-n3lo-smallR/H125-LHC13-R04-mb-475-mt-1725-xmur200-xmuf200-xQ025-NNLO+NNLLb.res -scheme b -order 2 -ptmax 500.01 -fixed_order 2 -loop-mass t+b
# process = H    
# collider = pp   
# rts =  13000.000
# M   =    125.000
# muR =    250.000
# muF =    250.000
# Q   =     31.250
# p   =      5.000
# include_c1_squared =   F
# loop_mass  = t+b 
# alphas(MZ) =    0.11800
# alphas(M) =    0.11264
# alphas(muR) =    0.10244
# Rjet =      0.400
# order = NNLL
# pdf name and set = PDF4LHC15_nnlo_mc.LHgrid,    0
# matching scheme = b
# total cross sections [nb] at LO, NLOdiff, NNLOdiff, N3LOdiff =     0.010658    0.014649    0.010464    0.005358
#----------------------------------------------------------------------
# the lines that follow give the jet-veto efficiencies as a function of pt
#         pt            matched eff      resummed eff     fixed-order eff
   2.00000000E+001   3.92868408E-001   5.65647993E-001   3.42914779E-001
   2.50000000E+001   4.76240976E-001   6.37716296E-001   4.51588865E-001
   3.00000000E+001   5.46217258E-001   6.79757988E-001   5.34323891E-001
   3.50000000E+001   6.05597581E-001   7.02506655E-001   5.99878022E-001
   4.00000000E+001   6.55737566E-001   7.14412639E-001   6.52928428E-001
   4.50000000E+001   6.98074893E-001   7.20691121E-001   6.96647108E-001
   5.00000000E+001   7.33965932E-001   7.24106775E-001   7.33209386E-001
   5.50000000E+001   7.64499400E-001   7.26040668E-001   7.64082718E-001
   6.00000000E+001   7.90574040E-001   7.27181036E-001   7.90335720E-001
   6.50000000E+001   8.13134068E-001   7.27879541E-001   8.12993295E-001
   7.00000000E+001   8.32750127E-001   7.28322348E-001   8.32664659E-001
   7.50000000E+001   8.49813969E-001   7.28611788E-001   8.49760719E-001
   8.00000000E+001   8.64835472E-001   7.28806198E-001   8.64801607E-001
   8.50000000E+001   8.77982619E-001   7.28939975E-001   8.77960638E-001
   9.00000000E+001   8.89604633E-001   7.29034033E-001   8.89590152E-001
   9.50000000E+001   8.99884223E-001   7.29101456E-001   8.99874538E-001
   1.00000000E+002   9.08973381E-001   7.29150630E-001   9.08966811E-001
   1.05000000E+002   9.17172474E-001   7.29187062E-001   9.17167984E-001
   1.10000000E+002   9.24472959E-001   7.29214439E-001   9.24469864E-001
   1.15000000E+002   9.31035138E-001   7.29235280E-001   9.31032989E-001
   1.20000000E+002   9.36913236E-001   7.29251335E-001   9.36911738E-001
   1.25000000E+002   9.42195431E-001   7.29263836E-001   9.42194383E-001
   1.30000000E+002   9.46964070E-001   7.29273670E-001   9.46963336E-001
   1.35000000E+002   9.51307229E-001   7.29281476E-001   9.51306719E-001
   1.40000000E+002   9.55232486E-001   7.29287726E-001   9.55232133E-001
   1.45000000E+002   9.58787528E-001   7.29292769E-001   9.58787286E-001
   1.50000000E+002   9.62035738E-001   7.29296870E-001   9.62035576E-001
   1.55000000E+002   9.64985639E-001   7.29300227E-001   9.64985533E-001
   1.60000000E+002   9.67696020E-001   7.29302993E-001   9.67695956E-001
   1.65000000E+002   9.70170607E-001   7.29305286E-001   9.70170571E-001
   1.70000000E+002   9.72424564E-001   7.29307198E-001   9.72424549E-001
   1.75000000E+002   9.74455489E-001   7.29308800E-001   9.74455487E-001
   1.80000000E+002   9.76354703E-001   7.29310150E-001   9.76354712E-001
   1.85000000E+002   9.78097552E-001   7.29311292E-001   9.78097567E-001
   1.90000000E+002   9.79672496E-001   7.29312263E-001   9.79672515E-001
   1.95000000E+002   9.81132527E-001   7.29313093E-001   9.81132549E-001
   2.00000000E+002   9.82463048E-001   7.29313804E-001   9.82463071E-001
   2.05000000E+002   9.83699795E-001   7.29314416E-001   9.83699819E-001
   2.10000000E+002   9.84842389E-001   7.29314945E-001   9.84842413E-001
   2.15000000E+002   9.85894688E-001   7.29315403E-001   9.85894711E-001
   2.20000000E+002   9.86862403E-001   7.29315801E-001   9.86862425E-001
   2.25000000E+002   9.87749873E-001   7.29316149E-001   9.87749895E-001
   2.30000000E+002   9.88583955E-001   7.29316454E-001   9.88583976E-001
   2.35000000E+002   9.89361999E-001   7.29316721E-001   9.89362019E-001
   2.40000000E+002   9.90050257E-001   7.29316956E-001   9.90050275E-001
   2.45000000E+002   9.90709550E-001   7.29317163E-001   9.90709568E-001
