# ./jetvheto -in n3lo-fixed-order/H125-LHC13-R04-mb-0-mt-1725-xmur050-xmuf050-log.fxd -xQ 0.75 -out benchmarks-n3lo-smallR/H125-LHC13-R04-mb-0-mt-1725-xmur050-xmuf050-xQ075-N3LO+NNLLb.R0-1.0.res -scheme b -order 2 -ptmax 500.01 -small-r -fixed_order 3 -loop-mass t -R0 1.0
# process = H    
# collider = pp   
# rts =  13000.000
# M   =    125.000
# muR =     62.500
# muF =     62.500
# Q   =     93.750
# p   =      5.000
# include_c1_squared =   F
# loop_mass  = t   
# alphas(MZ) =    0.11800
# alphas(M) =    0.11264
# alphas(muR) =    0.12516
# Rjet =      0.400
# order = NNLL
# pdf name and set = PDF4LHC15_nnlo_mc.LHgrid,    0
# matching scheme = b
# total cross sections [nb] at LO, NLOdiff, NNLOdiff, N3LOdiff =     0.015885    0.020561    0.008998    0.001413
#----------------------------------------------------------------------
# the lines that follow give the jet-veto efficiencies as a function of pt
#         pt            matched eff      resummed eff     fixed-order eff
   2.00000000E+001   4.78534254E-001   5.51725267E-001   4.41643521E-001
   2.50000000E+001   5.62565625E-001   6.31294309E-001   5.29528045E-001
   3.00000000E+001   6.32883744E-001   6.86852930E-001   6.04131024E-001
   3.50000000E+001   6.88630371E-001   7.25340683E-001   6.63337130E-001
   4.00000000E+001   7.31568664E-001   7.51541382E-001   7.09302441E-001
   4.50000000E+001   7.68831422E-001   7.68810474E-001   7.49371437E-001
   5.00000000E+001   7.98614090E-001   7.79547012E-001   7.81702411E-001
   5.50000000E+001   8.24088804E-001   7.85518395E-001   8.09465789E-001
   6.00000000E+001   8.44920828E-001   7.88046893E-001   8.32379427E-001
   6.50000000E+001   8.64250224E-001   7.88153420E-001   8.53504482E-001
   7.00000000E+001   8.78938902E-001   7.86637515E-001   8.69854849E-001
   7.50000000E+001   8.92086546E-001   7.84123425E-001   8.84440584E-001
   8.00000000E+001   9.03999465E-001   7.81089680E-001   8.97583035E-001
   8.50000000E+001   9.14599004E-001   7.77887191E-001   9.09233323E-001
   9.00000000E+001   9.23977324E-001   7.74757034E-001   9.19502663E-001
   9.50000000E+001   9.31434439E-001   7.71848166E-001   9.27728280E-001
   1.00000000E+002   9.38640228E-001   7.69239717E-001   9.35563225E-001
   1.05000000E+002   9.44333221E-001   7.66960092E-001   9.41788367E-001
   1.10000000E+002   9.49613401E-001   7.65004434E-001   9.47503067E-001
   1.15000000E+002   9.54659930E-001   7.63348527E-001   9.52903001E-001
   1.20000000E+002   9.59233237E-001   7.61958846E-001   9.57766396E-001
   1.25000000E+002   9.63047562E-001   7.60799097E-001   9.61821780E-001
   1.30000000E+002   9.66348269E-001   7.59834318E-001   9.65320871E-001
   1.35000000E+002   9.69656325E-001   7.59032774E-001   9.68789919E-001
   1.40000000E+002   9.72684830E-001   7.58366737E-001   9.71951352E-001
   1.45000000E+002   9.75325750E-001   7.57812619E-001   9.74702884E-001
   1.50000000E+002   9.77384317E-001   7.57350691E-001   9.76854447E-001
   1.55000000E+002   9.79743714E-001   7.56964627E-001   9.79289601E-001
   1.60000000E+002   9.81861266E-001   7.56641019E-001   9.81470679E-001
   1.65000000E+002   9.83152735E-001   7.56368892E-001   9.82816919E-001
   1.70000000E+002   9.84838269E-001   7.56139286E-001   9.84547446E-001
   1.75000000E+002   9.86395336E-001   7.55944889E-001   9.86142527E-001
   1.80000000E+002   9.87585810E-001   7.55779726E-001   9.87365627E-001
   1.85000000E+002   9.88681988E-001   7.55638915E-001   9.88489569E-001
   1.90000000E+002   9.89808652E-001   7.55518451E-001   9.89639801E-001
   1.95000000E+002   9.90850356E-001   7.55415046E-001   9.90701722E-001
   2.00000000E+002   9.91771729E-001   7.55325989E-001   9.91640532E-001
   2.05000000E+002   9.92497325E-001   7.55249043E-001   9.92381271E-001
   2.10000000E+002   9.93227351E-001   7.55182352E-001   9.93124356E-001
   2.15000000E+002   9.93793748E-001   7.55124373E-001   9.93702166E-001
   2.20000000E+002   9.94605774E-001   7.55073820E-001   9.94523970E-001
   2.25000000E+002   9.95024303E-001   7.55029615E-001   9.94951215E-001
   2.30000000E+002   9.95542235E-001   7.54990855E-001   9.95476723E-001
   2.35000000E+002   9.95918343E-001   7.54956778E-001   9.95859519E-001
   2.40000000E+002   9.96329711E-001   7.54926741E-001   9.96276754E-001
   2.45000000E+002   9.96812288E-001   7.54900200E-001   9.96764480E-001
