# ./jetvheto -in n3lo-fixed-order/H125-LHC13-R04-mb-0-mt-1725-xmur050-xmuf100-log.fxd -xQ 0.25 -out benchmarks-n3lo-smallR/H125-LHC13-R04-mb-0-mt-1725-xmur050-xmuf100-xQ025-NNLO+NNLLb.R0-0.5.res -scheme b -order 2 -ptmax 500.01 -small-r -fixed_order 2 -loop-mass t -R0 0.5
# process = H    
# collider = pp   
# rts =  13000.000
# M   =    125.000
# muR =     62.500
# muF =    125.000
# Q   =     31.250
# p   =      5.000
# include_c1_squared =   F
# loop_mass  = t   
# alphas(MZ) =    0.11800
# alphas(M) =    0.11264
# alphas(muR) =    0.12516
# Rjet =      0.400
# order = NNLL
# pdf name and set = PDF4LHC15_nnlo_mc.LHgrid,    0
# matching scheme = b
# total cross sections [nb] at LO, NLOdiff, NNLOdiff, N3LOdiff =     0.016868    0.020591    0.008553    0.000949
#----------------------------------------------------------------------
# the lines that follow give the jet-veto efficiencies as a function of pt
#         pt            matched eff      resummed eff     fixed-order eff
   2.00000000E+001   4.02365483E-001   5.03061866E-001   3.53874297E-001
   2.50000000E+001   4.85522281E-001   5.71996597E-001   4.59741637E-001
   3.00000000E+001   5.55201767E-001   6.12555173E-001   5.41840375E-001
   3.50000000E+001   6.14132127E-001   6.34629864E-001   6.07203422E-001
   4.00000000E+001   6.64063927E-001   6.46226094E-001   6.60382096E-001
   4.50000000E+001   7.06112633E-001   6.52354659E-001   7.04076620E-001
   5.00000000E+001   7.41785623E-001   6.55692993E-001   7.40608827E-001
   5.50000000E+001   7.72075094E-001   6.57584486E-001   7.71364670E-001
   6.00000000E+001   7.98137803E-001   6.58700326E-001   7.97692154E-001
   6.50000000E+001   8.20597039E-001   6.59383982E-001   8.20307414E-001
   7.00000000E+001   8.39931316E-001   6.59817445E-001   8.39737032E-001
   7.50000000E+001   8.56852615E-001   6.60100807E-001   8.56718559E-001
   8.00000000E+001   8.71675643E-001   6.60291148E-001   8.71580854E-001
   8.50000000E+001   8.84583321E-001   6.60422130E-001   8.84514754E-001
   9.00000000E+001   8.96031348E-001   6.60514228E-001   8.95980819E-001
   9.50000000E+001   9.06081284E-001   6.60580245E-001   9.06043369E-001
   1.00000000E+002   9.15021417E-001   6.60628396E-001   9.14992506E-001
   1.05000000E+002   9.22980429E-001   6.60664070E-001   9.22958070E-001
   1.10000000E+002   9.29995863E-001   6.60690878E-001   9.29978343E-001
   1.15000000E+002   9.36349942E-001   6.60711286E-001   9.36336055E-001
   1.20000000E+002   9.41994583E-001   6.60727007E-001   9.41983453E-001
   1.25000000E+002   9.47097907E-001   6.60739249E-001   9.47088902E-001
   1.30000000E+002   9.51696110E-001   6.60748878E-001   9.51688757E-001
   1.35000000E+002   9.55840556E-001   6.60756522E-001   9.55834505E-001
   1.40000000E+002   9.59553214E-001   6.60762642E-001   9.59548192E-001
   1.45000000E+002   9.62987767E-001   6.60767581E-001   9.62983574E-001
   1.50000000E+002   9.66022242E-001   6.60771596E-001   9.66018715E-001
   1.55000000E+002   9.68825022E-001   6.60774884E-001   9.68822038E-001
   1.60000000E+002   9.71388408E-001   6.60777592E-001   9.71385869E-001
   1.65000000E+002   9.73696938E-001   6.60779838E-001   9.73694766E-001
   1.70000000E+002   9.75822692E-001   6.60781710E-001   9.75820827E-001
   1.75000000E+002   9.77722791E-001   6.60783279E-001   9.77721179E-001
   1.80000000E+002   9.79487016E-001   6.60784600E-001   9.79485619E-001
   1.85000000E+002   9.81079571E-001   6.60785719E-001   9.81078354E-001
   1.90000000E+002   9.82555441E-001   6.60786670E-001   9.82554378E-001
   1.95000000E+002   9.83924898E-001   6.60787482E-001   9.83923965E-001
   2.00000000E+002   9.85158098E-001   6.60788179E-001   9.85157277E-001
   2.05000000E+002   9.86311213E-001   6.60788778E-001   9.86310488E-001
   2.10000000E+002   9.87349913E-001   6.60789296E-001   9.87349271E-001
   2.15000000E+002   9.88290628E-001   6.60789744E-001   9.88290057E-001
   2.20000000E+002   9.89179127E-001   6.60790135E-001   9.89178618E-001
   2.25000000E+002   9.89988771E-001   6.60790475E-001   9.89988317E-001
   2.30000000E+002   9.90737495E-001   6.60790773E-001   9.90737088E-001
   2.35000000E+002   9.91443651E-001   6.60791035E-001   9.91443286E-001
   2.40000000E+002   9.92070536E-001   6.60791265E-001   9.92070208E-001
   2.45000000E+002   9.92663303E-001   6.60791468E-001   9.92663007E-001
