# ./jetvheto -in n3lo-fixed-order/H125-LHC13-R04-mb-475-mt-1725-xmur050-xmuf050-log.fxd -xQ 0.25 -out benchmarks-n3lo-smallR/H125-LHC13-R04-mb-475-mt-1725-xmur050-xmuf050-xQ025-N3LO+NNLLa.R0-2.0.res -scheme a -order 2 -ptmax 500.01 -fixed_order 3 -small-r -loop-mass t+b -R0 2.0
# process = H    
# collider = pp   
# rts =  13000.000
# M   =    125.000
# muR =     62.500
# muF =     62.500
# Q   =     31.250
# p   =      5.000
# include_c1_squared =   F
# loop_mass  = t+b 
# alphas(MZ) =    0.11800
# alphas(M) =    0.11264
# alphas(muR) =    0.12516
# Rjet =      0.400
# order = NNLL
# pdf name and set = PDF4LHC15_nnlo_mc.LHgrid,    0
# matching scheme = a
# total cross sections [nb] at LO, NLOdiff, NNLOdiff, N3LOdiff =     0.014147    0.020254    0.008998    0.001413
#----------------------------------------------------------------------
# the lines that follow give the jet-veto efficiencies as a function of pt
#         pt            matched eff      resummed eff     fixed-order eff
   2.00000000E+001   4.40941428E-001   4.74370961E-001   4.41074844E-001
   2.50000000E+001   5.26379901E-001   5.39481435E-001   5.26291803E-001
   3.00000000E+001   5.99412511E-001   5.78042274E-001   5.99588615E-001
   3.50000000E+001   6.57959986E-001   5.99135095E-001   6.58104134E-001
   4.00000000E+001   7.03649062E-001   6.10250802E-001   7.03699261E-001
   4.50000000E+001   7.43869454E-001   6.16136125E-001   7.43908515E-001
   5.00000000E+001   7.76249723E-001   6.19345325E-001   7.76267730E-001
   5.50000000E+001   8.04426457E-001   6.21164751E-001   8.04438345E-001
   6.00000000E+001   8.27662348E-001   6.22238457E-001   8.27667847E-001
   6.50000000E+001   8.49068309E-001   6.22896440E-001   8.49073502E-001
   7.00000000E+001   8.65765249E-001   6.23313681E-001   8.65767048E-001
   7.50000000E+001   8.80673435E-001   6.23586464E-001   8.80674091E-001
   8.00000000E+001   8.94137714E-001   6.23769708E-001   8.94138038E-001
   8.50000000E+001   9.06106648E-001   6.23895811E-001   9.06106835E-001
   9.00000000E+001   9.16610899E-001   6.23984481E-001   9.16611008E-001
   9.50000000E+001   9.25078642E-001   6.24048042E-001   9.25078477E-001
   1.00000000E+002   9.33101983E-001   6.24094403E-001   9.33101787E-001
   1.05000000E+002   9.39585917E-001   6.24128750E-001   9.39585604E-001
   1.10000000E+002   9.45495530E-001   6.24154562E-001   9.45495190E-001
   1.15000000E+002   9.51094411E-001   6.24174211E-001   9.51094105E-001
   1.20000000E+002   9.56107948E-001   6.24189348E-001   9.56107678E-001
   1.25000000E+002   9.60296542E-001   6.24201135E-001   9.60296277E-001
   1.30000000E+002   9.63938277E-001   6.24210406E-001   9.63938023E-001
   1.35000000E+002   9.67547114E-001   6.24217766E-001   9.67546891E-001
   1.40000000E+002   9.70830444E-001   6.24223659E-001   9.70830250E-001
   1.45000000E+002   9.73664818E-001   6.24228414E-001   9.73664645E-001
   1.50000000E+002   9.75887986E-001   6.24232281E-001   9.75887820E-001
   1.55000000E+002   9.78411671E-001   6.24235446E-001   9.78411529E-001
   1.60000000E+002   9.80668218E-001   6.24238054E-001   9.80668095E-001
   1.65000000E+002   9.82074264E-001   6.24240216E-001   9.82074144E-001
   1.70000000E+002   9.83850145E-001   6.24242018E-001   9.83850040E-001
   1.75000000E+002   9.85520727E-001   6.24243529E-001   9.85520635E-001
   1.80000000E+002   9.86797430E-001   6.24244802E-001   9.86797346E-001
   1.85000000E+002   9.87975469E-001   6.24245879E-001   9.87975392E-001
   1.90000000E+002   9.89172406E-001   6.24246795E-001   9.89172337E-001
   1.95000000E+002   9.90274873E-001   6.24247577E-001   9.90274812E-001
   2.00000000E+002   9.91246417E-001   6.24248247E-001   9.91246363E-001
   2.05000000E+002   9.92022467E-001   6.24248824E-001   9.92022417E-001
   2.10000000E+002   9.92795453E-001   6.24249323E-001   9.92795408E-001
   2.15000000E+002   9.93402962E-001   6.24249755E-001   9.93402921E-001
   2.20000000E+002   9.94259347E-001   6.24250130E-001   9.94259310E-001
   2.25000000E+002   9.94706413E-001   6.24250458E-001   9.94706379E-001
   2.30000000E+002   9.95249374E-001   6.24250745E-001   9.95249343E-001
   2.35000000E+002   9.95654029E-001   6.24250997E-001   9.95654001E-001
   2.40000000E+002   9.96088008E-001   6.24251219E-001   9.96087982E-001
   2.45000000E+002   9.96585725E-001   6.24251414E-001   9.96585702E-001
