# ./jetvheto -in n3lo-fixed-order/H125-LHC13-R04-mb-0-mt-1725-xmur200-xmuf100-log.fxd -xQ 0.25 -out benchmarks-n3lo-smallR/H125-LHC13-R04-mb-0-mt-1725-xmur200-xmuf100-xQ025-N3LO+NNLLa.R0-1.0.res -scheme a -order 2 -ptmax 500.01 -small-r -fixed_order 3 -loop-mass t -R0 1.0
# process = H    
# collider = pp   
# rts =  13000.000
# M   =    125.000
# muR =    250.000
# muF =    125.000
# Q   =     31.250
# p   =      5.000
# include_c1_squared =   F
# loop_mass  = t   
# alphas(MZ) =    0.11800
# alphas(M) =    0.11264
# alphas(muR) =    0.10244
# Rjet =      0.400
# order = NNLL
# pdf name and set = PDF4LHC15_nnlo_mc.LHgrid,    0
# matching scheme = a
# total cross sections [nb] at LO, NLOdiff, NNLOdiff, N3LOdiff =     0.011501    0.015066    0.010526    0.005600
#----------------------------------------------------------------------
# the lines that follow give the jet-veto efficiencies as a function of pt
#         pt            matched eff      resummed eff     fixed-order eff
   2.00000000E+001   4.81758710E-001   5.75447431E-001   4.90754923E-001
   2.50000000E+001   5.66978061E-001   6.51211429E-001   5.73235191E-001
   3.00000000E+001   6.36016155E-001   6.95711541E-001   6.40126678E-001
   3.50000000E+001   6.89685004E-001   7.19907442E-001   6.92213126E-001
   4.00000000E+001   7.32757869E-001   7.32610629E-001   7.34315482E-001
   4.50000000E+001   7.67592375E-001   7.39322007E-001   7.68570187E-001
   5.00000000E+001   7.96819273E-001   7.42977132E-001   7.97452991E-001
   5.50000000E+001   8.21577124E-001   7.45047899E-001   8.22000414E-001
   6.00000000E+001   8.42473788E-001   7.46269421E-001   8.42763416E-001
   6.50000000E+001   8.60854249E-001   7.47017798E-001   8.61058104E-001
   7.00000000E+001   8.76409814E-001   7.47492286E-001   8.76555984E-001
   7.50000000E+001   8.89569247E-001   7.47802463E-001   8.89675686E-001
   8.00000000E+001   9.01107430E-001   7.48010813E-001   9.01186361E-001
   8.50000000E+001   9.11406952E-001   7.48154187E-001   9.11466536E-001
   9.00000000E+001   9.20282782E-001   7.48254998E-001   9.20328326E-001
   9.50000000E+001   9.28303095E-001   7.48327260E-001   9.28338424E-001
   1.00000000E+002   9.35154694E-001   7.48379966E-001   9.35182357E-001
   1.05000000E+002   9.41285139E-001   7.48419015E-001   9.41307045E-001
   1.10000000E+002   9.46762242E-001   7.48448359E-001   9.46779771E-001
   1.15000000E+002   9.51699213E-001   7.48470697E-001   9.51713368E-001
   1.20000000E+002   9.56025992E-001   7.48487905E-001   9.56037512E-001
   1.25000000E+002   9.59828652E-001   7.48501305E-001   9.59838094E-001
   1.30000000E+002   9.63513706E-001   7.48511845E-001   9.63521519E-001
   1.35000000E+002   9.66761164E-001   7.48520212E-001   9.66767667E-001
   1.40000000E+002   9.69568773E-001   7.48526911E-001   9.69574216E-001
   1.45000000E+002   9.72212922E-001   7.48532317E-001   9.72217507E-001
   1.50000000E+002   9.74494137E-001   7.48536712E-001   9.74498018E-001
   1.55000000E+002   9.76833479E-001   7.48540310E-001   9.76836788E-001
   1.60000000E+002   9.78592654E-001   7.48543275E-001   9.78595480E-001
   1.65000000E+002   9.80368183E-001   7.48545733E-001   9.80370612E-001
   1.70000000E+002   9.81946943E-001   7.48547782E-001   9.81949039E-001
   1.75000000E+002   9.83441033E-001   7.48549499E-001   9.83442850E-001
   1.80000000E+002   9.84816976E-001   7.48550946E-001   9.84818558E-001
   1.85000000E+002   9.86057569E-001   7.48552171E-001   9.86058950E-001
   1.90000000E+002   9.87020911E-001   7.48553212E-001   9.87022120E-001
   1.95000000E+002   9.88118097E-001   7.48554101E-001   9.88119161E-001
   2.00000000E+002   9.89070133E-001   7.48554863E-001   9.89071072E-001
   2.05000000E+002   9.89912725E-001   7.48555519E-001   9.89913555E-001
   2.10000000E+002   9.90669595E-001   7.48556086E-001   9.90670331E-001
   2.15000000E+002   9.91456225E-001   7.48556577E-001   9.91456881E-001
   2.20000000E+002   9.92078671E-001   7.48557004E-001   9.92079255E-001
   2.25000000E+002   9.92702418E-001   7.48557377E-001   9.92702941E-001
   2.30000000E+002   9.93282618E-001   7.48557703E-001   9.93283087E-001
   2.35000000E+002   9.93821615E-001   7.48557989E-001   9.93822036E-001
   2.40000000E+002   9.94228310E-001   7.48558241E-001   9.94228689E-001
   2.45000000E+002   9.94706673E-001   7.48558464E-001   9.94707015E-001
