# ./jetvheto -in n3lo-fixed-order/H125-LHC13-R04-mb-475-mt-1725-xmur050-xmuf050-log.fxd -xQ 0.75 -out benchmarks-n3lo-smallR/H125-LHC13-R04-mb-475-mt-1725-xmur050-xmuf050-xQ075-NNLO+NNLLb.res -scheme b -order 2 -ptmax 500.01 -fixed_order 2 -loop-mass t+b
# process = H    
# collider = pp   
# rts =  13000.000
# M   =    125.000
# muR =     62.500
# muF =     62.500
# Q   =     93.750
# p   =      5.000
# include_c1_squared =   F
# loop_mass  = t+b 
# alphas(MZ) =    0.11800
# alphas(M) =    0.11264
# alphas(muR) =    0.12516
# Rjet =      0.400
# order = NNLL
# pdf name and set = PDF4LHC15_nnlo_mc.LHgrid,    0
# matching scheme = b
# total cross sections [nb] at LO, NLOdiff, NNLOdiff, N3LOdiff =     0.014147    0.020254    0.008998    0.001413
#----------------------------------------------------------------------
# the lines that follow give the jet-veto efficiencies as a function of pt
#         pt            matched eff      resummed eff     fixed-order eff
   2.00000000E+001   4.23361187E-001   5.12794823E-001   3.08135668E-001
   2.50000000E+001   5.08021900E-001   5.90903454E-001   4.16958718E-001
   3.00000000E+001   5.76938535E-001   6.45707583E-001   5.02459671E-001
   3.50000000E+001   6.33565789E-001   6.83861272E-001   5.71196452E-001
   4.00000000E+001   6.80325625E-001   7.09996185E-001   6.27360842E-001
   4.50000000E+001   7.19650787E-001   7.27376170E-001   6.74295094E-001
   5.00000000E+001   7.52784177E-001   7.38340487E-001   7.13816378E-001
   5.50000000E+001   7.80795657E-001   7.44614284E-001   7.47307378E-001
   6.00000000E+001   8.04739058E-001   7.47488989E-001   7.76012324E-001
   6.50000000E+001   8.25307303E-001   7.47961618E-001   8.00751743E-001
   7.00000000E+001   8.43246713E-001   7.46812894E-001   8.22342000E-001
   7.50000000E+001   8.58732764E-001   7.44652563E-001   8.41024239E-001
   8.00000000E+001   8.72418522E-001   7.41948553E-001   8.57481768E-001
   8.50000000E+001   8.84579833E-001   7.39044913E-001   8.72028209E-001
   9.00000000E+001   8.95302197E-001   7.36179223E-001   8.84788465E-001
   9.50000000E+001   9.04817170E-001   7.33499815E-001   8.96030076E-001
   1.00000000E+002   9.13425827E-001   7.31087252E-001   9.06088095E-001
   1.05000000E+002   9.21149552E-001   7.28972741E-001   9.15022873E-001
   1.10000000E+002   9.28087390E-001   7.27154947E-001   9.22967578E-001
   1.15000000E+002   9.34409455E-001   7.25613390E-001   9.30123525E-001
   1.20000000E+002   9.40121228E-001   7.24318162E-001   9.36525194E-001
   1.25000000E+002   9.45367932E-001   7.23236267E-001   9.42341979E-001
   1.30000000E+002   9.50066464E-001   7.22335626E-001   9.47512677E-001
   1.35000000E+002   9.54355472E-001   7.21586956E-001   9.52192707E-001
   1.40000000E+002   9.58291753E-001   7.20964583E-001   9.56453519E-001
   1.45000000E+002   9.61859256E-001   7.20446612E-001   9.60291255E-001
   1.50000000E+002   9.65148487E-001   7.20014693E-001   9.63805964E-001
   1.55000000E+002   9.68140443E-001   7.19653629E-001   9.66986816E-001
   1.60000000E+002   9.70867246E-001   7.19350917E-001   9.69872376E-001
   1.65000000E+002   9.73340870E-001   7.19096323E-001   9.72479918E-001
   1.70000000E+002   9.75604568E-001   7.18881483E-001   9.74856924E-001
   1.75000000E+002   9.77709662E-001   7.18699567E-001   9.77058190E-001
   1.80000000E+002   9.79595562E-001   7.18544995E-001   9.79026110E-001
   1.85000000E+002   9.81354374E-001   7.18413202E-001   9.80855018E-001
   1.90000000E+002   9.82960295E-001   7.18300447E-001   9.82521082E-001
   1.95000000E+002   9.84425197E-001   7.18203652E-001   9.84037765E-001
   2.00000000E+002   9.85763432E-001   7.18120286E-001   9.85420716E-001
   2.05000000E+002   9.87001212E-001   7.18048253E-001   9.86697220E-001
   2.10000000E+002   9.88107150E-001   7.17985818E-001   9.87836822E-001
   2.15000000E+002   9.89160565E-001   7.17931538E-001   9.88919546E-001
   2.20000000E+002   9.90128482E-001   7.17884208E-001   9.89913075E-001
   2.25000000E+002   9.90979605E-001   7.17842822E-001   9.90786656E-001
   2.30000000E+002   9.91813602E-001   7.17806531E-001   9.91640359E-001
   2.35000000E+002   9.92540618E-001   7.17774626E-001   9.92384747E-001
   2.40000000E+002   9.93223107E-001   7.17746502E-001   9.93082569E-001
   2.45000000E+002   9.93838838E-001   7.17721652E-001   9.93711871E-001
