# ./jetvheto -in n3lo-fixed-order/H125-LHC13-R04-mb-0-mt-1725-xmur100-xmuf100-log.fxd -xQ 0.25 -out benchmarks-n3lo-smallR/H125-LHC13-R04-mb-0-mt-1725-xmur100-xmuf100-xQ025-N3LO+NNLLa.R0-1.5.res -scheme a -order 2 -ptmax 500.01 -small-r -fixed_order 3 -loop-mass t -R0 1.5
# process = H    
# collider = pp   
# rts =  13000.000
# M   =    125.000
# muR =    125.000
# muF =    125.000
# Q   =     31.250
# p   =      5.000
# include_c1_squared =   F
# loop_mass  = t   
# alphas(MZ) =    0.11800
# alphas(M) =    0.11264
# alphas(muR) =    0.11264
# Rjet =      0.400
# order = NNLL
# pdf name and set = PDF4LHC15_nnlo_mc.LHgrid,    0
# matching scheme = a
# total cross sections [nb] at LO, NLOdiff, NNLOdiff, N3LOdiff =     0.013801    0.017514    0.010146    0.003834
#----------------------------------------------------------------------
# the lines that follow give the jet-veto efficiencies as a function of pt
#         pt            matched eff      resummed eff     fixed-order eff
   2.00000000E+001   4.68481409E-001   5.44192646E-001   4.70549319E-001
   2.50000000E+001   5.53250394E-001   6.16725399E-001   5.55098689E-001
   3.00000000E+001   6.24066625E-001   6.59377589E-001   6.25631507E-001
   3.50000000E+001   6.79177009E-001   6.82586267E-001   6.80214785E-001
   4.00000000E+001   7.23661560E-001   6.94776745E-001   7.24327023E-001
   4.50000000E+001   7.59683645E-001   7.01218950E-001   7.60109480E-001
   5.00000000E+001   7.90128225E-001   7.04728001E-001   7.90410150E-001
   5.50000000E+001   8.16072288E-001   7.06716182E-001   8.16264683E-001
   6.00000000E+001   8.37902490E-001   7.07889046E-001   8.38035676E-001
   6.50000000E+001   8.57331252E-001   7.08607634E-001   8.57426760E-001
   7.00000000E+001   8.73675775E-001   7.09063244E-001   8.73744963E-001
   7.50000000E+001   8.87291947E-001   7.09361083E-001   8.87342330E-001
   8.00000000E+001   8.99242802E-001   7.09561148E-001   8.99280183E-001
   8.50000000E+001   9.10017706E-001   7.09698821E-001   9.10046058E-001
   9.00000000E+001   9.19195644E-001   7.09795623E-001   9.19217312E-001
   9.50000000E+001   9.27586851E-001   7.09865013E-001   9.27603719E-001
   1.00000000E+002   9.34611289E-001   7.09915624E-001   9.34624471E-001
   1.05000000E+002   9.40907235E-001   7.09953120E-001   9.40917661E-001
   1.10000000E+002   9.46560798E-001   7.09981297E-001   9.46569141E-001
   1.15000000E+002   9.51641257E-001   7.10002748E-001   9.51647991E-001
   1.20000000E+002   9.56054335E-001   7.10019272E-001   9.56059806E-001
   1.25000000E+002   9.59878844E-001   7.10032139E-001   9.59883314E-001
   1.30000000E+002   9.63707992E-001   7.10042260E-001   9.63711695E-001
   1.35000000E+002   9.67051635E-001   7.10050294E-001   9.67054718E-001
   1.40000000E+002   9.69874711E-001   7.10056727E-001   9.69877285E-001
   1.45000000E+002   9.72568939E-001   7.10061918E-001   9.72571106E-001
   1.50000000E+002   9.74850903E-001   7.10066139E-001   9.74852733E-001
   1.55000000E+002   9.77308877E-001   7.10069594E-001   9.77310440E-001
   1.60000000E+002   9.78982987E-001   7.10072441E-001   9.78984317E-001
   1.65000000E+002   9.80774486E-001   7.10074801E-001   9.80775628E-001
   1.70000000E+002   9.82341327E-001   7.10076769E-001   9.82342311E-001
   1.75000000E+002   9.83861898E-001   7.10078418E-001   9.83862750E-001
   1.80000000E+002   9.85257545E-001   7.10079807E-001   9.85258287E-001
   1.85000000E+002   9.86511067E-001   7.10080983E-001   9.86511714E-001
   1.90000000E+002   9.87390760E-001   7.10081983E-001   9.87391325E-001
   1.95000000E+002   9.88517665E-001   7.10082836E-001   9.88518162E-001
   2.00000000E+002   9.89473919E-001   7.10083568E-001   9.89474357E-001
   2.05000000E+002   9.90296752E-001   7.10084198E-001   9.90297139E-001
   2.10000000E+002   9.91032883E-001   7.10084742E-001   9.91033226E-001
   2.15000000E+002   9.91849060E-001   7.10085214E-001   9.91849366E-001
   2.20000000E+002   9.92440496E-001   7.10085624E-001   9.92440768E-001
   2.25000000E+002   9.93063432E-001   7.10085982E-001   9.93063675E-001
   2.30000000E+002   9.93644064E-001   7.10086295E-001   9.93644282E-001
   2.35000000E+002   9.94181312E-001   7.10086570E-001   9.94181508E-001
   2.40000000E+002   9.94545887E-001   7.10086812E-001   9.94546063E-001
   2.45000000E+002   9.95034366E-001   7.10087026E-001   9.95034525E-001
