# ./jetvheto -in n3lo-fixed-order/H125-LHC13-R04-mb-0-mt-1725-xmur100-xmuf100-log.fxd -xQ 0.333 -out benchmarks-n3lo-smallR/H125-LHC13-R04-mb-0-mt-1725-xmur100-xmuf100-xQ033-N3LO+NNLLa.R0-1.0.res -scheme a -order 2 -ptmax 500.01 -small-r -fixed_order 3 -loop-mass t -R0 1.0
# process = H    
# collider = pp   
# rts =  13000.000
# M   =    125.000
# muR =    125.000
# muF =    125.000
# Q   =     41.625
# p   =      5.000
# include_c1_squared =   F
# loop_mass  = t   
# alphas(MZ) =    0.11800
# alphas(M) =    0.11264
# alphas(muR) =    0.11264
# Rjet =      0.400
# order = NNLL
# pdf name and set = PDF4LHC15_nnlo_mc.LHgrid,    0
# matching scheme = a
# total cross sections [nb] at LO, NLOdiff, NNLOdiff, N3LOdiff =     0.013801    0.017514    0.010146    0.003834
#----------------------------------------------------------------------
# the lines that follow give the jet-veto efficiencies as a function of pt
#         pt            matched eff      resummed eff     fixed-order eff
   2.00000000E+001   4.67105636E-001   5.27685543E-001   4.70549319E-001
   2.50000000E+001   5.52539725E-001   6.07807708E-001   5.55098689E-001
   3.00000000E+001   6.23635909E-001   6.61874995E-001   6.25631507E-001
   3.50000000E+001   6.79030409E-001   6.96834694E-001   6.80214785E-001
   4.00000000E+001   7.23672081E-001   7.18496416E-001   7.24327023E-001
   4.50000000E+001   7.59757202E-001   7.31525879E-001   7.60109480E-001
   5.00000000E+001   7.90206970E-001   7.39285346E-001   7.90410150E-001
   5.50000000E+001   8.16137455E-001   7.43942382E-001   8.16264683E-001
   6.00000000E+001   8.37953841E-001   7.46791248E-001   8.38035676E-001
   6.50000000E+001   8.57368561E-001   7.48577237E-001   8.57426760E-001
   7.00000000E+001   8.73703444E-001   7.49726436E-001   8.73744963E-001
   7.50000000E+001   8.87313341E-001   7.50484984E-001   8.87342330E-001
   8.00000000E+001   8.99259301E-001   7.50997827E-001   8.99280183E-001
   8.50000000E+001   9.10030241E-001   7.51352304E-001   9.10046058E-001
   9.00000000E+001   9.19205451E-001   7.51602321E-001   9.19217312E-001
   9.50000000E+001   9.27594453E-001   7.51781934E-001   9.27603719E-001
   1.00000000E+002   9.34617374E-001   7.51913146E-001   9.34624471E-001
   1.05000000E+002   9.40912131E-001   7.52010473E-001   9.40917661E-001
   1.10000000E+002   9.46564745E-001   7.52083676E-001   9.46569141E-001
   1.15000000E+002   9.51644471E-001   7.52139439E-001   9.51647991E-001
   1.20000000E+002   9.56056982E-001   7.52182417E-001   9.56059806E-001
   1.25000000E+002   9.59881054E-001   7.52215898E-001   9.59883314E-001
   1.30000000E+002   9.63709816E-001   7.52242241E-001   9.63711695E-001
   1.35000000E+002   9.67053158E-001   7.52263157E-001   9.67054718E-001
   1.40000000E+002   9.69876000E-001   7.52279908E-001   9.69877285E-001
   1.45000000E+002   9.72570031E-001   7.52293428E-001   9.72571106E-001
   1.50000000E+002   9.74851837E-001   7.52304421E-001   9.74852733E-001
   1.55000000E+002   9.77309667E-001   7.52313422E-001   9.77310440E-001
   1.60000000E+002   9.78983676E-001   7.52320839E-001   9.78984317E-001
   1.65000000E+002   9.80775080E-001   7.52326987E-001   9.80775628E-001
   1.70000000E+002   9.82341844E-001   7.52332114E-001   9.82342311E-001
   1.75000000E+002   9.83862347E-001   7.52336411E-001   9.83862750E-001
   1.80000000E+002   9.85257937E-001   7.52340031E-001   9.85258287E-001
   1.85000000E+002   9.86511410E-001   7.52343095E-001   9.86511714E-001
   1.90000000E+002   9.87391065E-001   7.52345700E-001   9.87391325E-001
   1.95000000E+002   9.88517933E-001   7.52347924E-001   9.88518162E-001
   2.00000000E+002   9.89474156E-001   7.52349832E-001   9.89474357E-001
   2.05000000E+002   9.90296962E-001   7.52351473E-001   9.90297139E-001
   2.10000000E+002   9.91033071E-001   7.52352892E-001   9.91033226E-001
   2.15000000E+002   9.91849227E-001   7.52354121E-001   9.91849366E-001
   2.20000000E+002   9.92440646E-001   7.52355190E-001   9.92440768E-001
   2.25000000E+002   9.93063567E-001   7.52356123E-001   9.93063675E-001
   2.30000000E+002   9.93644184E-001   7.52356939E-001   9.93644282E-001
   2.35000000E+002   9.94181421E-001   7.52357656E-001   9.94181508E-001
   2.40000000E+002   9.94545985E-001   7.52358286E-001   9.94546063E-001
   2.45000000E+002   9.95034455E-001   7.52358843E-001   9.95034525E-001
