# ./jetvheto -in n3lo-fixed-order/H125-LHC13-R04-mb-475-mt-1725-xmur100-xmuf100-log.fxd -xQ 1.0 -out benchmarks-n3lo-smallR/H125-LHC13-R04-mb-475-mt-1725-xmur100-xmuf100-xQ100-NNLO+NNLLb.R0-1.5.res -scheme b -order 2 -ptmax 500.01 -fixed_order 2 -small-r -loop-mass t+b -R0 1.5
# process = H    
# collider = pp   
# rts =  13000.000
# M   =    125.000
# muR =    125.000
# muF =    125.000
# Q   =    125.000
# p   =      5.000
# include_c1_squared =   F
# loop_mass  = t+b 
# alphas(MZ) =    0.11800
# alphas(M) =    0.11264
# alphas(muR) =    0.11264
# Rjet =      0.400
# order = NNLL
# pdf name and set = PDF4LHC15_nnlo_mc.LHgrid,    0
# matching scheme = b
# total cross sections [nb] at LO, NLOdiff, NNLOdiff, N3LOdiff =     0.012292    0.016994    0.010146    0.003834
#----------------------------------------------------------------------
# the lines that follow give the jet-veto efficiencies as a function of pt
#         pt            matched eff      resummed eff     fixed-order eff
   2.00000000E+001   4.36349595E-001   5.87710639E-001   3.17550639E-001
   2.50000000E+001   5.20799455E-001   6.70589029E-001   4.27790656E-001
   3.00000000E+001   5.89775913E-001   7.28418222E-001   5.12989288E-001
   3.50000000E+001   6.46849834E-001   7.68453828E-001   5.80985186E-001
   4.00000000E+001   6.94132742E-001   7.95701822E-001   6.36189278E-001
   4.50000000E+001   7.33686839E-001   8.13620608E-001   6.81851830E-001
   5.00000000E+001   7.66994410E-001   8.24660944E-001   7.20147070E-001
   5.50000000E+001   7.95052843E-001   8.30599996E-001   7.52478916E-001
   6.00000000E+001   8.19070561E-001   8.32739677E-001   7.80255597E-001
   6.50000000E+001   8.39611590E-001   8.32054534E-001   8.04204225E-001
   7.00000000E+001   8.57170713E-001   8.29295318E-001   8.24914709E-001
   7.50000000E+001   8.72258990E-001   8.25048477E-001   8.42942328E-001
   8.00000000E+001   8.85395252E-001   8.19781600E-001   8.58824881E-001
   8.50000000E+001   8.96671156E-001   8.13870883E-001   8.72688093E-001
   9.00000000E+001   9.06628381E-001   8.07620776E-001   8.85054448E-001
   9.50000000E+001   9.15251759E-001   8.01273934E-001   8.95930965E-001
   1.00000000E+002   9.22836756E-001   7.95022229E-001   9.05604482E-001
   1.05000000E+002   9.29583600E-001   7.89012036E-001   9.14272722E-001
   1.10000000E+002   9.35466243E-001   7.83348813E-001   9.21917006E-001
   1.15000000E+002   9.40802984E-001   7.78102921E-001   9.28847935E-001
   1.20000000E+002   9.45495698E-001   7.73313529E-001   9.34979383E-001
   1.25000000E+002   9.49824311E-001   7.68994371E-001   9.40591281E-001
   1.30000000E+002   9.53723625E-001   7.65139324E-001   9.45631198E-001
   1.35000000E+002   9.57296451E-001   7.61727789E-001   9.50210516E-001
   1.40000000E+002   9.60512717E-001   7.58729542E-001   9.54313076E-001
   1.45000000E+002   9.63533504E-001   7.56108819E-001   9.58107610E-001
   1.50000000E+002   9.66239250E-001   7.53827557E-001   9.61490343E-001
   1.55000000E+002   9.68778062E-001   7.51847710E-001   9.64617823E-001
   1.60000000E+002   9.71094757E-001   7.50132856E-001   9.67446259E-001
   1.65000000E+002   9.73233359E-001   7.48649234E-001   9.70029596E-001
   1.70000000E+002   9.75216871E-001   7.47366234E-001   9.72399079E-001
   1.75000000E+002   9.77020621E-001   7.46256566E-001   9.74538410E-001
   1.80000000E+002   9.78698229E-001   7.45296218E-001   9.76507469E-001
   1.85000000E+002   9.80242447E-001   7.44464257E-001   9.78305324E-001
   1.90000000E+002   9.81676362E-001   7.43742573E-001   9.79960040E-001
   1.95000000E+002   9.83027982E-001   7.43115576E-001   9.81504081E-001
   2.00000000E+002   9.84256973E-001   7.42569895E-001   9.82901295E-001
   2.05000000E+002   9.85408002E-001   7.42094093E-001   9.84199444E-001
   2.10000000E+002   9.86463226E-001   7.41678403E-001   9.85383694E-001
   2.15000000E+002   9.87416898E-001   7.41314488E-001   9.86450755E-001
   2.20000000E+002   9.88324139E-001   7.40995235E-001   9.87457670E-001
   2.25000000E+002   9.89157010E-001   7.40714572E-001   9.88378441E-001
   2.30000000E+002   9.89928357E-001   7.40467312E-001   9.89227429E-001
   2.35000000E+002   9.90653877E-001   7.40249022E-001   9.90021629E-001
   2.40000000E+002   9.91306053E-001   7.40055902E-001   9.90734762E-001
   2.45000000E+002   9.91928203E-001   7.39884699E-001   9.91411035E-001
