# ./jetvheto -in n3lo-fixed-order/H125-LHC13-R04-mb-0-mt-1725-xmur050-xmuf100-log.fxd -xQ 0.5 -out benchmarks-n3lo-smallR/H125-LHC13-R04-mb-0-mt-1725-xmur050-xmuf100-xQ050-N3LO+NNLLa.R0-0.5.res -scheme a -order 2 -ptmax 500.01 -small-r -fixed_order 3 -loop-mass t -R0 0.5
# process = H    
# collider = pp   
# rts =  13000.000
# M   =    125.000
# muR =     62.500
# muF =    125.000
# Q   =     62.500
# p   =      5.000
# include_c1_squared =   F
# loop_mass  = t   
# alphas(MZ) =    0.11800
# alphas(M) =    0.11264
# alphas(muR) =    0.12516
# Rjet =      0.400
# order = NNLL
# pdf name and set = PDF4LHC15_nnlo_mc.LHgrid,    0
# matching scheme = a
# total cross sections [nb] at LO, NLOdiff, NNLOdiff, N3LOdiff =     0.016868    0.020591    0.008553    0.000949
#----------------------------------------------------------------------
# the lines that follow give the jet-veto efficiencies as a function of pt
#         pt            matched eff      resummed eff     fixed-order eff
   2.00000000E+001   4.66382644E-001   5.08742071E-001   4.55384304E-001
   2.50000000E+001   5.50966299E-001   5.86448385E-001   5.40568007E-001
   3.00000000E+001   6.23667035E-001   6.40833231E-001   6.15061825E-001
   3.50000000E+001   6.79499881E-001   6.78408024E-001   6.71924624E-001
   4.00000000E+001   7.24338977E-001   7.03842963E-001   7.17776886E-001
   4.50000000E+001   7.60272807E-001   7.20574940E-001   7.54726893E-001
   5.00000000E+001   7.90806562E-001   7.31200344E-001   7.86256196E-001
   5.50000000E+001   8.17010015E-001   7.37693063E-001   8.13360155E-001
   6.00000000E+001   8.38869440E-001   7.41518708E-001   8.35982829E-001
   6.50000000E+001   8.58795866E-001   7.43707492E-001   8.56539019E-001
   7.00000000E+001   8.75391046E-001   7.44935383E-001   8.73636697E-001
   7.50000000E+001   8.88842315E-001   7.45617994E-001   8.87481736E-001
   8.00000000E+001   9.00713793E-001   7.45997679E-001   8.99656735E-001
   8.50000000E+001   9.11679356E-001   7.46210522E-001   9.10854774E-001
   9.00000000E+001   9.20825142E-001   7.46331435E-001   9.20178063E-001
   9.50000000E+001   9.29413951E-001   7.46401287E-001   9.28902629E-001
   1.00000000E+002   9.36345000E-001   7.46442411E-001   9.35938367E-001
   1.05000000E+002   9.42595098E-001   7.46467109E-001   9.42269256E-001
   1.10000000E+002   9.48278559E-001   7.46482246E-001   9.48015510E-001
   1.15000000E+002   9.53366202E-001   7.46491711E-001   9.53152280E-001
   1.20000000E+002   9.57720616E-001   7.46497749E-001   9.57545500E-001
   1.25000000E+002   9.61391727E-001   7.46501675E-001   9.61247428E-001
   1.30000000E+002   9.65323454E-001   7.46504277E-001   9.65203712E-001
   1.35000000E+002   9.68696443E-001   7.46506032E-001   9.68596472E-001
   1.40000000E+002   9.71427103E-001   7.46507236E-001   9.71343224E-001
   1.45000000E+002   9.74097173E-001   7.46508077E-001   9.74026360E-001
   1.50000000E+002   9.76286955E-001   7.46508674E-001   9.76226901E-001
   1.55000000E+002   9.78881863E-001   7.46509104E-001   9.78830644E-001
   1.60000000E+002   9.80319619E-001   7.46509418E-001   9.80275773E-001
   1.65000000E+002   9.82075063E-001   7.46509651E-001   9.82037344E-001
   1.70000000E+002   9.83558151E-001   7.46509827E-001   9.83525568E-001
   1.75000000E+002   9.85076826E-001   7.46509960E-001   9.85048566E-001
   1.80000000E+002   9.86461394E-001   7.46510063E-001   9.86436787E-001
   1.85000000E+002   9.87698603E-001   7.46510144E-001   9.87677104E-001
   1.90000000E+002   9.88384907E-001   7.46510207E-001   9.88366066E-001
   1.95000000E+002   9.89531048E-001   7.46510258E-001   9.89514472E-001
   2.00000000E+002   9.90465178E-001   7.46510299E-001   9.90450552E-001
   2.05000000E+002   9.91222769E-001   7.46510332E-001   9.91209825E-001
   2.10000000E+002   9.91895858E-001   7.46510359E-001   9.91884371E-001
   2.15000000E+002   9.92747439E-001   7.46510381E-001   9.92737216E-001
   2.20000000E+002   9.93260611E-001   7.46510400E-001   9.93251490E-001
   2.25000000E+002   9.93864480E-001   7.46510416E-001   9.93856322E-001
   2.30000000E+002   9.94430078E-001   7.46510429E-001   9.94422764E-001
   2.35000000E+002   9.94947897E-001   7.46510440E-001   9.94941324E-001
   2.40000000E+002   9.95221826E-001   7.46510450E-001   9.95215907E-001
   2.45000000E+002   9.95716732E-001   7.46510458E-001   9.95711389E-001
