# ./jetvheto -in n3lo-fixed-order/H125-LHC13-R04-mb-0-mt-1725-xmur025-xmuf025-log.fxd -xQ 0.25 -out benchmarks-n3lo-smallR/H125-LHC13-R04-mb-0-mt-1725-xmur025-xmuf025-xQ025-N3LO+NNLLa.res -scheme a -order 2 -ptmax 500.01 -fixed_order 3 -loop-mass t
# process = H    
# collider = pp   
# rts =  13000.000
# M   =    125.000
# muR =     31.250
# muF =     31.250
# Q   =     31.250
# p   =      5.000
# include_c1_squared =   F
# loop_mass  = t   
# alphas(MZ) =    0.11800
# alphas(M) =    0.11264
# alphas(muR) =    0.14091
# Rjet =      0.400
# order = NNLL
# pdf name and set = PDF4LHC15_nnlo_mc.LHgrid,    0
# matching scheme = a
# total cross sections [nb] at LO, NLOdiff, NNLOdiff, N3LOdiff =     0.018140    0.025356    0.006043   -0.002471
#----------------------------------------------------------------------
# the lines that follow give the jet-veto efficiencies as a function of pt
#         pt            matched eff      resummed eff     fixed-order eff
   2.00000000E+001   4.59549086E-001   4.43698901E-001   4.60281449E-001
   2.50000000E+001   5.50800454E-001   5.07510197E-001   5.50385931E-001
   3.00000000E+001   6.21925270E-001   5.45375955E-001   6.21139730E-001
   3.50000000E+001   6.78355505E-001   5.66111229E-001   6.77588964E-001
   4.00000000E+001   7.25111065E-001   5.77045622E-001   7.24527077E-001
   4.50000000E+001   7.64534054E-001   5.82837563E-001   7.64122223E-001
   5.00000000E+001   7.97127611E-001   5.85996662E-001   7.96835644E-001
   5.50000000E+001   8.26029185E-001   5.87787953E-001   8.25828649E-001
   6.00000000E+001   8.49280243E-001   5.88845149E-001   8.49134989E-001
   6.50000000E+001   8.66962836E-001   5.89493050E-001   8.66851489E-001
   7.00000000E+001   8.84398391E-001   5.89903913E-001   8.84316376E-001
   7.50000000E+001   8.99133565E-001   5.90172530E-001   8.99072184E-001
   8.00000000E+001   9.10823440E-001   5.90352980E-001   9.10775817E-001
   8.50000000E+001   9.21897889E-001   5.90477161E-001   9.21861220E-001
   9.00000000E+001   9.31557661E-001   5.90564480E-001   9.31529078E-001
   9.50000000E+001   9.37771312E-001   5.90627073E-001   9.37748099E-001
   1.00000000E+002   9.45894776E-001   5.90672727E-001   9.45876515E-001
   1.05000000E+002   9.51404900E-001   5.90706552E-001   9.51390040E-001
   1.10000000E+002   9.57673144E-001   5.90731971E-001   9.57661210E-001
   1.15000000E+002   9.62876475E-001   5.90751321E-001   9.62866750E-001
   1.20000000E+002   9.66554128E-001   5.90766227E-001   9.66546049E-001
   1.25000000E+002   9.69624334E-001   5.90777835E-001   9.69617581E-001
   1.30000000E+002   9.73187799E-001   5.90786965E-001   9.73182178E-001
   1.35000000E+002   9.75901202E-001   5.90794213E-001   9.75896468E-001
   1.40000000E+002   9.78575145E-001   5.90800016E-001   9.78571151E-001
   1.45000000E+002   9.81029173E-001   5.90804699E-001   9.81025787E-001
   1.50000000E+002   9.83019965E-001   5.90808507E-001   9.83017075E-001
   1.55000000E+002   9.84866576E-001   5.90811624E-001   9.84864101E-001
   1.60000000E+002   9.87057432E-001   5.90814192E-001   9.87055315E-001
   1.65000000E+002   9.88376635E-001   5.90816321E-001   9.88374802E-001
   1.70000000E+002   9.89353666E-001   5.90818096E-001   9.89352070E-001
   1.75000000E+002   9.90941990E-001   5.90819584E-001   9.90940607E-001
   1.80000000E+002   9.91719146E-001   5.90820837E-001   9.91717934E-001
   1.85000000E+002   9.92899298E-001   5.90821898E-001   9.92898239E-001
   1.90000000E+002   9.93680684E-001   5.90822800E-001   9.93679753E-001
   1.95000000E+002   9.94672487E-001   5.90823570E-001   9.94671667E-001
   2.00000000E+002   9.95194156E-001   5.90824230E-001   9.95193430E-001
   2.05000000E+002   9.95758060E-001   5.90824799E-001   9.95757415E-001
   2.10000000E+002   9.96264764E-001   5.90825289E-001   9.96264190E-001
   2.15000000E+002   9.96992919E-001   5.90825715E-001   9.96992409E-001
   2.20000000E+002   9.97344134E-001   5.90826085E-001   9.97343677E-001
   2.25000000E+002   9.97917219E-001   5.90826408E-001   9.97916811E-001
   2.30000000E+002   9.98226149E-001   5.90826690E-001   9.98225783E-001
   2.35000000E+002   9.98346034E-001   5.90826938E-001   9.98345703E-001
   2.40000000E+002   9.98774876E-001   5.90827157E-001   9.98774579E-001
   2.45000000E+002   9.99097387E-001   5.90827349E-001   9.99097118E-001
