# ./jetvheto -in n3lo-fixed-order/H125-LHC13-R04-mb-0-mt-1725-xmur200-xmuf100-log.fxd -xQ 0.0625 -out benchmarks-n3lo-smallR/H125-LHC13-R04-mb-0-mt-1725-xmur200-xmuf100-xQ0625-NNLO+NNLLa.R0-1.5.res -scheme a -order 2 -ptmax 500.01 -small-r -fixed_order 2 -loop-mass t -R0 1.5
# process = H    
# collider = pp   
# rts =  13000.000
# M   =    125.000
# muR =    250.000
# muF =    125.000
# Q   =      7.812
# p   =      5.000
# include_c1_squared =   F
# loop_mass  = t   
# alphas(MZ) =    0.11800
# alphas(M) =    0.11264
# alphas(muR) =    0.10244
# Rjet =      0.400
# order = NNLL
# pdf name and set = PDF4LHC15_nnlo_mc.LHgrid,    0
# matching scheme = a
# total cross sections [nb] at LO, NLOdiff, NNLOdiff, N3LOdiff =     0.011501    0.015066    0.010526    0.005600
#----------------------------------------------------------------------
# the lines that follow give the jet-veto efficiencies as a function of pt
#         pt            matched eff      resummed eff     fixed-order eff
   2.00000000E+001   5.46536732E-001   3.68589414E-001   5.46775556E-001
   2.50000000E+001   6.22553647E-001   3.69200279E-001   6.22665977E-001
   3.00000000E+001   6.80310419E-001   3.69379148E-001   6.80366203E-001
   3.50000000E+001   7.25838633E-001   3.69443815E-001   7.25868363E-001
   4.00000000E+001   7.62610115E-001   3.69470950E-001   7.62627000E-001
   4.50000000E+001   7.92708919E-001   3.69483670E-001   7.92719035E-001
   5.00000000E+001   8.17838605E-001   3.69490165E-001   8.17844948E-001
   5.50000000E+001   8.39006490E-001   3.69493716E-001   8.39010620E-001
   6.00000000E+001   8.57087141E-001   3.69495768E-001   8.57089921E-001
   6.50000000E+001   8.72631174E-001   3.69497009E-001   8.72633098E-001
   7.00000000E+001   8.86003885E-001   3.69497791E-001   8.86005250E-001
   7.50000000E+001   8.97735549E-001   3.69498299E-001   8.97736538E-001
   8.00000000E+001   9.08014919E-001   3.69498639E-001   9.08015650E-001
   8.50000000E+001   9.17007369E-001   3.69498873E-001   9.17007918E-001
   9.00000000E+001   9.24960693E-001   3.69499037E-001   9.24961112E-001
   9.50000000E+001   9.31973801E-001   3.69499154E-001   9.31974125E-001
   1.00000000E+002   9.38240832E-001   3.69499240E-001   9.38241085E-001
   1.05000000E+002   9.43831822E-001   3.69499303E-001   9.43832023E-001
   1.10000000E+002   9.48777425E-001   3.69499351E-001   9.48777585E-001
   1.15000000E+002   9.53267122E-001   3.69499387E-001   9.53267251E-001
   1.20000000E+002   9.57279964E-001   3.69499415E-001   9.57280069E-001
   1.25000000E+002   9.60908598E-001   3.69499436E-001   9.60908684E-001
   1.30000000E+002   9.64197926E-001   3.69499453E-001   9.64197997E-001
   1.35000000E+002   9.67153470E-001   3.69499467E-001   9.67153529E-001
   1.40000000E+002   9.69841530E-001   3.69499478E-001   9.69841579E-001
   1.45000000E+002   9.72303136E-001   3.69499487E-001   9.72303178E-001
   1.50000000E+002   9.74511290E-001   3.69499494E-001   9.74511326E-001
   1.55000000E+002   9.76554709E-001   3.69499500E-001   9.76554739E-001
   1.60000000E+002   9.78418661E-001   3.69499504E-001   9.78418687E-001
   1.65000000E+002   9.80110277E-001   3.69499508E-001   9.80110300E-001
   1.70000000E+002   9.81662991E-001   3.69499512E-001   9.81663010E-001
   1.75000000E+002   9.83063064E-001   3.69499514E-001   9.83063080E-001
   1.80000000E+002   9.84361026E-001   3.69499517E-001   9.84361040E-001
   1.85000000E+002   9.85541665E-001   3.69499519E-001   9.85541678E-001
   1.90000000E+002   9.86635097E-001   3.69499520E-001   9.86635108E-001
   1.95000000E+002   9.87643969E-001   3.69499522E-001   9.87643979E-001
   2.00000000E+002   9.88561223E-001   3.69499523E-001   9.88561232E-001
   2.05000000E+002   9.89417143E-001   3.69499524E-001   9.89417151E-001
   2.10000000E+002   9.90192182E-001   3.69499525E-001   9.90192188E-001
   2.15000000E+002   9.90902326E-001   3.69499526E-001   9.90902332E-001
   2.20000000E+002   9.91566196E-001   3.69499527E-001   9.91566202E-001
   2.25000000E+002   9.92174802E-001   3.69499527E-001   9.92174807E-001
   2.30000000E+002   9.92738848E-001   3.69499528E-001   9.92738853E-001
   2.35000000E+002   9.93266307E-001   3.69499528E-001   9.93266311E-001
   2.40000000E+002   9.93742393E-001   3.69499529E-001   9.93742396E-001
   2.45000000E+002   9.94189004E-001   3.69499529E-001   9.94189007E-001
