# ./jetvheto -in n3lo-fixed-order/H125-LHC13-R04-mb-475-mt-1725-xmur100-xmuf200-log.fxd -xQ 0.25 -out benchmarks-n3lo-smallR/H125-LHC13-R04-mb-475-mt-1725-xmur100-xmuf200-xQ025-NNLO+NNLLb.R0-2.0.res -scheme b -order 2 -ptmax 500.01 -fixed_order 2 -small-r -loop-mass t+b -R0 2.0
# process = H    
# collider = pp   
# rts =  13000.000
# M   =    125.000
# muR =    125.000
# muF =    250.000
# Q   =     31.250
# p   =      5.000
# include_c1_squared =   F
# loop_mass  = t+b 
# alphas(MZ) =    0.11800
# alphas(M) =    0.11264
# alphas(muR) =    0.11264
# Rjet =      0.400
# order = NNLL
# pdf name and set = PDF4LHC15_nnlo_mc.LHgrid,    0
# matching scheme = b
# total cross sections [nb] at LO, NLOdiff, NNLOdiff, N3LOdiff =     0.012791    0.017144    0.009991    0.003297
#----------------------------------------------------------------------
# the lines that follow give the jet-veto efficiencies as a function of pt
#         pt            matched eff      resummed eff     fixed-order eff
   2.00000000E+001   3.83854002E-001   5.34519623E-001   3.29106479E-001
   2.50000000E+001   4.67408344E-001   6.02737394E-001   4.39529527E-001
   3.00000000E+001   5.38041869E-001   6.42588525E-001   5.24122484E-001
   3.50000000E+001   5.98270876E-001   6.64173857E-001   5.91301191E-001
   4.00000000E+001   6.49326021E-001   6.75478383E-001   6.45740756E-001
   4.50000000E+001   6.92634229E-001   6.81441996E-001   6.90716080E-001
   5.00000000E+001   7.29331502E-001   6.84687071E-001   7.28255957E-001
   5.50000000E+001   7.60623112E-001   6.86524618E-001   7.59993542E-001
   6.00000000E+001   7.87311413E-001   6.87608254E-001   7.86927122E-001
   6.50000000E+001   8.10386740E-001   6.88272039E-001   8.10143416E-001
   7.00000000E+001   8.30463224E-001   6.88692847E-001   8.30304175E-001
   7.50000000E+001   8.47896451E-001   6.88967914E-001   8.47789344E-001
   8.00000000E+001   8.63244250E-001   6.89152671E-001   8.63170279E-001
   8.50000000E+001   8.76645615E-001   6.89279806E-001   8.76593282E-001
   9.00000000E+001   8.88510057E-001   6.89369197E-001   8.88472295E-001
   9.50000000E+001   8.98979136E-001   6.89433272E-001   8.98951354E-001
   1.00000000E+002   9.08209745E-001   6.89480006E-001   9.08188939E-001
   1.05000000E+002   9.16541930E-001   6.89514630E-001   9.16526121E-001
   1.10000000E+002   9.23957366E-001   6.89540649E-001   9.23945186E-001
   1.15000000E+002   9.30603027E-001   6.89560456E-001   9.30593517E-001
   1.20000000E+002   9.36559715E-001   6.89575713E-001   9.36552205E-001
   1.25000000E+002   9.41895897E-001   6.89587595E-001   9.41889900E-001
   1.30000000E+002   9.46708317E-001   6.89596940E-001   9.46703480E-001
   1.35000000E+002   9.51101565E-001   6.89604359E-001   9.51097632E-001
   1.40000000E+002   9.55055700E-001   6.89610298E-001   9.55052473E-001
   1.45000000E+002   9.58635708E-001   6.89615092E-001   9.58633039E-001
   1.50000000E+002   9.61900530E-001   6.89618989E-001   9.61898307E-001
   1.55000000E+002   9.64858347E-001   6.89622180E-001   9.64856482E-001
   1.60000000E+002   9.67587453E-001   6.89624808E-001   9.67585880E-001
   1.65000000E+002   9.70071686E-001   6.89626988E-001   9.70070351E-001
   1.70000000E+002   9.72331904E-001   6.89628804E-001   9.72330764E-001
   1.75000000E+002   9.74363571E-001   6.89630327E-001   9.74362593E-001
   1.80000000E+002   9.76262927E-001   6.89631610E-001   9.76262084E-001
   1.85000000E+002   9.78009085E-001   6.89632695E-001   9.78008356E-001
   1.90000000E+002   9.79585278E-001   6.89633619E-001   9.79584644E-001
   1.95000000E+002   9.81045173E-001   6.89634407E-001   9.81044620E-001
   2.00000000E+002   9.82375125E-001   6.89635083E-001   9.82374640E-001
   2.05000000E+002   9.83611512E-001   6.89635664E-001   9.83611085E-001
   2.10000000E+002   9.84755189E-001   6.89636167E-001   9.84754813E-001
   2.15000000E+002   9.85809671E-001   6.89636602E-001   9.85809338E-001
   2.20000000E+002   9.86776501E-001   6.89636981E-001   9.86776206E-001
   2.25000000E+002   9.87663967E-001   6.89637312E-001   9.87663703E-001
   2.30000000E+002   9.88499375E-001   6.89637601E-001   9.88499140E-001
   2.35000000E+002   9.89277799E-001   6.89637855E-001   9.89277589E-001
   2.40000000E+002   9.89963932E-001   6.89638078E-001   9.89963744E-001
   2.45000000E+002   9.90625193E-001   6.89638275E-001   9.90625024E-001
