# python build-Q2-histos.py --mtQ1file ../../JetVHeto/benchmarks-n3lo-smallR/H125-LHC13-R04-mb-0-mt-1725-xmur050-xmuf025-xQ050-N3LO+NNLLb.R0-1.0.res --mtQ2file ../../JetVHeto/benchmarks-n3lo-smallR/H125-LHC13-R04-mb-0-mt-1725-xmur050-xmuf025-xQ0625-N3LO+NNLLb.R0-1.0.res --mtmbQ2file ../../JetVHeto/benchmarks-n3lo-smallR/H125-LHC13-R04-mb-475-mt-1725-xmur050-xmuf025-xQ0625-N3LO+NNLLb.R0-1.0.res
# process = H    
# collider = pp   
# rts =  13000.000
# M   =    125.000
# muR =     62.500
# muF =     31.250
# Q1  =  62.500; Q2  =  7.812
# p   =      5.000
# include_c1_squared =   F
# loop_mass  = t+b 
# alphas(MZ) =    0.11800
# alphas(M) =    0.11264
# alphas(muR) =    0.12516
# Rjet =      0.400
# order = NNLL
# pdf name and set = PDF4LHC15_nnlo_mc.LHgrid,    0
# matching scheme = b
# total cross sections [nb] at LO, NLOdiff, NNLOdiff, N3LOdiff =     0.012926    0.020318    0.009723    0.001827
#----------------------------------------------------------------------
# the lines that follow give the jet-veto efficiencies as a function of pt
#         pt            matched eff      resummed eff     fixed-order eff
20.0 0.43179113648 0.495355138835 0.415980545
25.0 0.520784064747 0.579877309057 0.5078001
30.0 0.591848187837 0.640418608202 0.580656478
35.0 0.649416683332 0.683231320963 0.639756651
40.0 0.697104544798 0.71301390064 0.688975344
45.0 0.737283307164 0.733253717609 0.730606525
50.0 0.770793629988 0.746628179834 0.765403404
55.0 0.80002139365 0.755223987499 0.79576994
60.0 0.824280890671 0.760624212267 0.820952172
65.0 0.843879233668 0.763971059038 0.841282612
70.0 0.8623589445 0.766040809798 0.860356605
75.0 0.878127533448 0.767332150492 0.876584241
80.0 0.891372058239 0.768152187584 0.890175714
85.0 0.903645505443 0.768685007409 0.902715631
90.0 0.914390947952 0.769040090234 0.913663383
95.0 0.922469795482 0.769282840115 0.921894582
100.0 0.931234132631 0.769452879408 0.930777862
105.0 0.938070264702 0.769574682388 0.937704516
110.0 0.94498932799 0.769663713462 0.944694592
115.0 0.95095983139 0.769729976642 0.950720349
120.0 0.955754451135 0.769780093507 0.955558232
125.0 0.959917307479 0.769818546061 0.959755469
130.0 0.964154562334 0.769848427385 0.964020346
135.0 0.967669882161 0.769871915825 0.967557819
140.0 0.970959829312 0.769890573475 0.970865759
145.0 0.974008450638 0.769905532412 0.973929043
150.0 0.976619266876 0.769917628006 0.976551883
155.0 0.979014333008 0.76992748782 0.978956876
160.0 0.981508990572 0.769935579774 0.981459799
165.0 0.983358067077 0.769942268186 0.983315727
170.0 0.984908038684 0.769947829876 0.98487144
175.0 0.986738555389 0.769952482052 0.986706822
180.0 0.987988316986 0.769956392752 0.987960674
185.0 0.989410543772 0.769959698864 0.989386397
190.0 0.990543353826 0.769962504772 0.990522177
195.0 0.991743834676 0.769964899237 0.991725209
200.0 0.992609750976 0.769966950182 0.992593312
205.0 0.993455813893 0.769968712864 0.993441263
210.0 0.994219998612 0.769970235365 0.994207082
215.0 0.99506987514 0.769971553233 0.995058385
220.0 0.995669423769 0.769972698796 0.995659169
225.0 0.996357785773 0.769973699162 0.996348616
230.0 0.996855541577 0.76997457426 0.99684732
235.0 0.997226141294 0.769975339709 0.997218752
240.0 0.997744725128 0.769976016351 0.997738071
245.0 0.998166721593 0.769976611585 0.998160716
