# ./jetvheto -in n3lo-fixed-order/H125-LHC13-R04-mb-0-mt-1725-xmur100-xmuf100-log.fxd -xQ 0.75 -out benchmarks-n3lo-smallR/H125-LHC13-R04-mb-0-mt-1725-xmur100-xmuf100-xQ075-NNLO+NNLLb.R0-2.0.res -scheme b -order 2 -ptmax 500.01 -small-r -fixed_order 2 -loop-mass t -R0 2.0
# process = H    
# collider = pp   
# rts =  13000.000
# M   =    125.000
# muR =    125.000
# muF =    125.000
# Q   =     93.750
# p   =      5.000
# include_c1_squared =   F
# loop_mass  = t   
# alphas(MZ) =    0.11800
# alphas(M) =    0.11264
# alphas(muR) =    0.11264
# Rjet =      0.400
# order = NNLL
# pdf name and set = PDF4LHC15_nnlo_mc.LHgrid,    0
# matching scheme = b
# total cross sections [nb] at LO, NLOdiff, NNLOdiff, N3LOdiff =     0.013801    0.017514    0.010146    0.003834
#----------------------------------------------------------------------
# the lines that follow give the jet-veto efficiencies as a function of pt
#         pt            matched eff      resummed eff     fixed-order eff
   2.00000000E+001   4.62672764E-001   5.72071328E-001   3.54033455E-001
   2.50000000E+001   5.45010737E-001   6.54011248E-001   4.61286580E-001
   3.00000000E+001   6.10879586E-001   7.11657000E-001   5.43462220E-001
   3.50000000E+001   6.64450468E-001   7.51899220E-001   6.08508831E-001
   4.00000000E+001   7.08523664E-001   7.79550867E-001   6.61203589E-001
   4.50000000E+001   7.44900593E-001   7.98007717E-001   7.04404447E-001
   5.00000000E+001   7.75368424E-001   8.09695366E-001   7.40494892E-001
   5.50000000E+001   8.00980692E-001   8.16407067E-001   7.70889733E-001
   6.00000000E+001   8.22819160E-001   8.19502286E-001   7.96874542E-001
   6.50000000E+001   8.41514623E-001   8.20036804E-001   8.19206785E-001
   7.00000000E+001   8.57508503E-001   8.18839133E-001   8.38409214E-001
   7.50000000E+001   8.71510675E-001   8.16556282E-001   8.55230292E-001
   8.00000000E+001   8.83774213E-001   8.13685520E-001   8.69962422E-001
   8.50000000E+001   8.94486353E-001   8.10593760E-001   8.82823656E-001
   9.00000000E+001   9.04022416E-001   8.07536036E-001   8.94209219E-001
   9.50000000E+001   9.12463234E-001   8.04673284E-001   9.04230001E-001
   1.00000000E+002   9.20064824E-001   8.02093123E-001   9.13167919E-001
   1.05000000E+002   9.26908825E-001   7.99830063E-001   9.21134551E-001
   1.10000000E+002   9.33006895E-001   7.97883476E-001   9.28171457E-001
   1.15000000E+002   9.38608979E-001   7.96232039E-001   9.34553636E-001
   1.20000000E+002   9.43651658E-001   7.94844031E-001   9.40244216E-001
   1.25000000E+002   9.48260013E-001   7.93684400E-001   9.45389469E-001
   1.30000000E+002   9.52467940E-001   7.92718875E-001   9.50042546E-001
   1.35000000E+002   9.56284297E-001   7.91916135E-001   9.54228420E-001
   1.40000000E+002   9.59761672E-001   7.91248721E-001   9.58013167E-001
   1.45000000E+002   9.62985221E-001   7.90693202E-001   9.61492620E-001
   1.50000000E+002   9.65874051E-001   7.90229932E-001   9.64595577E-001
   1.55000000E+002   9.68564049E-001   7.89842630E-001   9.67464933E-001
   1.60000000E+002   9.71033218E-001   7.89517900E-001   9.70084916E-001
   1.65000000E+002   9.73276632E-001   7.89244774E-001   9.72455647E-001
   1.70000000E+002   9.75347578E-001   7.89014285E-001   9.74634361E-001
   1.75000000E+002   9.77213939E-001   7.88819112E-001   9.76592344E-001
   1.80000000E+002   9.78952103E-001   7.88653270E-001   9.78408580E-001
   1.85000000E+002   9.80532573E-001   7.88511865E-001   9.80055856E-001
   1.90000000E+002   9.82001222E-001   7.88390883E-001   9.81581823E-001
   1.95000000E+002   9.83362863E-001   7.88287024E-001   9.82992805E-001
   2.00000000E+002   9.84598407E-001   7.88197572E-001   9.84270986E-001
   2.05000000E+002   9.85755120E-001   7.88120280E-001   9.85464627E-001
   2.10000000E+002   9.86801722E-001   7.88053286E-001   9.86543334E-001
   2.15000000E+002   9.87757801E-001   7.87995041E-001   9.87527400E-001
   2.20000000E+002   9.88656855E-001   7.87944254E-001   9.88450903E-001
   2.25000000E+002   9.89480131E-001   7.87899843E-001   9.89295609E-001
   2.30000000E+002   9.90243519E-001   7.87860902E-001   9.90077825E-001
   2.35000000E+002   9.90960765E-001   7.87826665E-001   9.90811652E-001
   2.40000000E+002   9.91604356E-001   7.87796486E-001   9.91469891E-001
   2.45000000E+002   9.92210720E-001   7.87769819E-001   9.92089219E-001
