# ./jetvheto -in n3lo-fixed-order/H125-LHC13-R04-mb-475-mt-1725-xmur050-xmuf050-log.fxd -xQ 0.25 -out benchmarks-n3lo-smallR/H125-LHC13-R04-mb-475-mt-1725-xmur050-xmuf050-xQ025-N3LO+NNLLb.R0-1.5.res -scheme b -order 2 -ptmax 500.01 -fixed_order 3 -small-r -loop-mass t+b -R0 1.5
# process = H    
# collider = pp   
# rts =  13000.000
# M   =    125.000
# muR =     62.500
# muF =     62.500
# Q   =     31.250
# p   =      5.000
# include_c1_squared =   F
# loop_mass  = t+b 
# alphas(MZ) =    0.11800
# alphas(M) =    0.11264
# alphas(muR) =    0.12516
# Rjet =      0.400
# order = NNLL
# pdf name and set = PDF4LHC15_nnlo_mc.LHgrid,    0
# matching scheme = b
# total cross sections [nb] at LO, NLOdiff, NNLOdiff, N3LOdiff =     0.014147    0.020254    0.008998    0.001413
#----------------------------------------------------------------------
# the lines that follow give the jet-veto efficiencies as a function of pt
#         pt            matched eff      resummed eff     fixed-order eff
   2.00000000E+001   4.29190485E-001   4.73074440E-001   4.22880362E-001
   2.50000000E+001   5.14583311E-001   5.38761195E-001   5.10871357E-001
   3.00000000E+001   5.88327437E-001   5.77656378E-001   5.86554172E-001
   3.50000000E+001   6.47877632E-001   5.98927819E-001   6.46974526E-001
   4.00000000E+001   6.94582820E-001   6.10136067E-001   6.94053894E-001
   4.50000000E+001   7.35864973E-001   6.16069880E-001   7.35572065E-001
   5.00000000E+001   7.69165759E-001   6.19305362E-001   7.68984657E-001
   5.50000000E+001   7.98184649E-001   6.21139636E-001   7.98072300E-001
   6.00000000E+001   8.22133025E-001   6.22222086E-001   8.22057983E-001
   6.50000000E+001   8.44209077E-001   6.22885420E-001   8.44160448E-001
   7.00000000E+001   8.61432742E-001   6.23306053E-001   8.61397413E-001
   7.50000000E+001   8.76815303E-001   6.23581051E-001   8.76789719E-001
   8.00000000E+001   8.90710577E-001   6.23765783E-001   8.90691953E-001
   8.50000000E+001   9.03064131E-001   6.23892911E-001   9.03050366E-001
   9.00000000E+001   9.13906822E-001   6.23982300E-001   9.13896477E-001
   9.50000000E+001   9.22647717E-001   6.24046378E-001   9.22639584E-001
   1.00000000E+002   9.30930422E-001   6.24093114E-001   9.30924075E-001
   1.05000000E+002   9.37624086E-001   6.24127740E-001   9.37618957E-001
   1.10000000E+002   9.43725068E-001   6.24153761E-001   9.43720915E-001
   1.15000000E+002   9.49505444E-001   6.24173570E-001   9.49502090E-001
   1.20000000E+002   9.54681599E-001   6.24188830E-001   9.54678868E-001
   1.25000000E+002   9.59006087E-001   6.24200712E-001   9.59003817E-001
   1.30000000E+002   9.62766013E-001   6.24210059E-001   9.62764111E-001
   1.35000000E+002   9.66492042E-001   6.24217478E-001   9.66490458E-001
   1.40000000E+002   9.69882027E-001   6.24223419E-001   9.69880698E-001
   1.45000000E+002   9.72808485E-001   6.24228213E-001   9.72807360E-001
   1.50000000E+002   9.75103875E-001   6.24232111E-001   9.75102905E-001
   1.55000000E+002   9.77709591E-001   6.24235302E-001   9.77708768E-001
   1.60000000E+002   9.80039495E-001   6.24237931E-001   9.80038790E-001
   1.65000000E+002   9.81491228E-001   6.24240110E-001   9.81490611E-001
   1.70000000E+002   9.83324851E-001   6.24241927E-001   9.83324317E-001
   1.75000000E+002   9.85049757E-001   6.24243450E-001   9.85049293E-001
   1.80000000E+002   9.86367971E-001   6.24244733E-001   9.86367565E-001
   1.85000000E+002   9.87584317E-001   6.24245819E-001   9.87583960E-001
   1.90000000E+002   9.88820183E-001   6.24246742E-001   9.88819869E-001
   1.95000000E+002   9.89958508E-001   6.24247531E-001   9.89958231E-001
   2.00000000E+002   9.90961654E-001   6.24248207E-001   9.90961409E-001
   2.05000000E+002   9.91762944E-001   6.24248788E-001   9.91762726E-001
   2.10000000E+002   9.92561073E-001   6.24249291E-001   9.92560879E-001
   2.15000000E+002   9.93188342E-001   6.24249727E-001   9.93188169E-001
   2.20000000E+002   9.94072590E-001   6.24250105E-001   9.94072436E-001
   2.25000000E+002   9.94534197E-001   6.24250436E-001   9.94534058E-001
   2.30000000E+002   9.95094822E-001   6.24250725E-001   9.95094697E-001
   2.35000000E+002   9.95512640E-001   6.24250979E-001   9.95512527E-001
   2.40000000E+002   9.95960738E-001   6.24251203E-001   9.95960635E-001
   2.45000000E+002   9.96474650E-001   6.24251400E-001   9.96474558E-001
