# ./jetvheto -in n3lo-fixed-order/H125-LHC13-R04-mb-0-mt-1725-xmur025-xmuf025-log.fxd -xQ 0.25 -out benchmarks-n3lo-smallR/H125-LHC13-R04-mb-0-mt-1725-xmur025-xmuf025-xQ025-NNLO+NNLLa.R0-2.0.res -scheme a -order 2 -ptmax 500.01 -small-r -fixed_order 2 -loop-mass t -R0 2.0
# process = H    
# collider = pp   
# rts =  13000.000
# M   =    125.000
# muR =     31.250
# muF =     31.250
# Q   =     31.250
# p   =      5.000
# include_c1_squared =   F
# loop_mass  = t   
# alphas(MZ) =    0.11800
# alphas(M) =    0.11264
# alphas(muR) =    0.14091
# Rjet =      0.400
# order = NNLL
# pdf name and set = PDF4LHC15_nnlo_mc.LHgrid,    0
# matching scheme = a
# total cross sections [nb] at LO, NLOdiff, NNLOdiff, N3LOdiff =     0.018140    0.025356    0.006043   -0.002471
#----------------------------------------------------------------------
# the lines that follow give the jet-veto efficiencies as a function of pt
#         pt            matched eff      resummed eff     fixed-order eff
   2.00000000E+001   4.42861850E-001   4.49101671E-001   4.30690105E-001
   2.50000000E+001   5.27474174E-001   5.10458024E-001   5.20586602E-001
   3.00000000E+001   5.95823527E-001   5.46935617E-001   5.92014950E-001
   3.50000000E+001   6.52150837E-001   5.66942411E-001   6.50064662E-001
   4.00000000E+001   6.98862344E-001   5.77503636E-001   6.97703316E-001
   4.50000000E+001   7.37963990E-001   5.83101344E-001   7.37303585E-001
   5.00000000E+001   7.71009716E-001   5.86155569E-001   7.70617108E-001
   5.50000000E+001   7.99051709E-001   5.87887738E-001   7.98809609E-001
   6.00000000E+001   8.23105648E-001   5.88910161E-001   8.22950709E-001
   6.50000000E+001   8.43854072E-001   5.89536796E-001   8.43751279E-001
   7.00000000E+001   8.61867408E-001   5.89934191E-001   8.61797081E-001
   7.50000000E+001   8.77344537E-001   5.90194011E-001   8.77294866E-001
   8.00000000E+001   8.91056321E-001   5.90368553E-001   8.91020454E-001
   8.50000000E+001   9.03004567E-001   5.90488671E-001   9.02978081E-001
   9.00000000E+001   9.13559299E-001   5.90573133E-001   9.13539336E-001
   9.50000000E+001   9.22760461E-001   5.90633679E-001   9.22745123E-001
   1.00000000E+002   9.30979885E-001   5.90677841E-001   9.30967926E-001
   1.05000000E+002   9.38305628E-001   5.90710559E-001   9.38296175E-001
   1.10000000E+002   9.44777180E-001   5.90735147E-001   9.44769617E-001
   1.15000000E+002   9.50615489E-001   5.90753865E-001   9.50609371E-001
   1.20000000E+002   9.55812760E-001   5.90768283E-001   9.55807756E-001
   1.25000000E+002   9.60377012E-001   5.90779512E-001   9.60372878E-001
   1.30000000E+002   9.64534042E-001   5.90788343E-001   9.64530604E-001
   1.35000000E+002   9.68263970E-001   5.90795354E-001   9.68261090E-001
   1.40000000E+002   9.71617274E-001   5.90800968E-001   9.71614842E-001
   1.45000000E+002   9.74682082E-001   5.90805498E-001   9.74680018E-001
   1.50000000E+002   9.77397999E-001   5.90809181E-001   9.77396235E-001
   1.55000000E+002   9.79853031E-001   5.90812196E-001   9.79851516E-001
   1.60000000E+002   9.82096253E-001   5.90814680E-001   9.82094946E-001
   1.65000000E+002   9.84129714E-001   5.90816740E-001   9.84128581E-001
   1.70000000E+002   9.85932935E-001   5.90818457E-001   9.85931948E-001
   1.75000000E+002   9.87581975E-001   5.90819896E-001   9.87581113E-001
   1.80000000E+002   9.89076524E-001   5.90821108E-001   9.89075767E-001
   1.85000000E+002   9.90410543E-001   5.90822134E-001   9.90409877E-001
   1.90000000E+002   9.91648070E-001   5.90823007E-001   9.91647482E-001
   1.95000000E+002   9.92783466E-001   5.90823752E-001   9.92782944E-001
   2.00000000E+002   9.93786726E-001   5.90824390E-001   9.93786262E-001
   2.05000000E+002   9.94722015E-001   5.90824940E-001   9.94721603E-001
   2.10000000E+002   9.95581091E-001   5.90825415E-001   9.95580722E-001
   2.15000000E+002   9.96308884E-001   5.90825826E-001   9.96308554E-001
   2.20000000E+002   9.97002327E-001   5.90826184E-001   9.97002030E-001
   2.25000000E+002   9.97641335E-001   5.90826497E-001   9.97641068E-001
   2.30000000E+002   9.98194817E-001   5.90826770E-001   9.98194576E-001
   2.35000000E+002   9.98698315E-001   5.90827010E-001   9.98698098E-001
   2.40000000E+002   9.99145283E-001   5.90827221E-001   9.99145086E-001
   2.45000000E+002   9.99563758E-001   5.90827407E-001   9.99563579E-001
