# ./jetvheto -in n3lo-fixed-order/H125-LHC13-R04-heft-xmur200-xmuf200-log.fxd -xQ 0.50 -out benchmarks-n3lo-smallR/H125-LHC13-R04-heft-xmur200-xmuf200-xQ050-N3LO+NNLLb.R0-2.0.res -scheme b -order 2 -ptmax 500.01 -fixed_order 3 -small-r -R0 2.0
# process = H    
# collider = pp   
# rts =  13000.000
# M   =    125.000
# muR =    250.000
# muF =    250.000
# Q   =     62.500
# p   =      5.000
# include_c1_squared =   F
# loop_mass  = none
# alphas(MZ) =    0.11800
# alphas(M) =    0.11264
# alphas(muR) =    0.10244
# Rjet =      0.400
# order = NNLL
# pdf name and set = PDF4LHC15_nnlo_mc.LHgrid,    0
# matching scheme = b
# total cross sections [nb] at LO, NLOdiff, NNLOdiff, N3LOdiff =     0.011138    0.014625    0.010464    0.005358
#----------------------------------------------------------------------
# the lines that follow give the jet-veto efficiencies as a function of pt
#         pt            matched eff      resummed eff     fixed-order eff
   2.00000000E+001   4.42252785E-001   5.46911651E-001   4.05581169E-001
   2.50000000E+001   5.27748352E-001   6.29127335E-001   5.03593572E-001
   3.00000000E+001   5.95352911E-001   6.87129278E-001   5.78260533E-001
   3.50000000E+001   6.51264392E-001   7.27557602E-001   6.38745828E-001
   4.00000000E+001   6.97258169E-001   7.55203390E-001   6.87811581E-001
   4.50000000E+001   7.34733990E-001   7.73606669E-001   7.27456724E-001
   5.00000000E+001   7.67699165E-001   7.85462710E-001   7.62096488E-001
   5.50000000E+001   7.94642832E-001   7.92841822E-001   7.90309877E-001
   6.00000000E+001   8.17715292E-001   7.97294600E-001   8.14374962E-001
   6.50000000E+001   8.37325047E-001   7.99921463E-001   8.34755290E-001
   7.00000000E+001   8.55223482E-001   8.01453952E-001   8.53247806E-001
   7.50000000E+001   8.70050082E-001   8.02348786E-001   8.68528249E-001
   8.00000000E+001   8.83024783E-001   8.02877365E-001   8.81847863E-001
   8.50000000E+001   8.94615144E-001   8.03195828E-001   8.93700078E-001
   9.00000000E+001   9.04586261E-001   8.03392599E-001   9.03869957E-001
   9.50000000E+001   9.13929800E-001   8.03517627E-001   9.13364896E-001
   1.00000000E+002   9.21802627E-001   8.03599406E-001   9.21353866E-001
   1.05000000E+002   9.28759924E-001   8.03654463E-001   9.28400606E-001
   1.10000000E+002   9.34816178E-001   8.03692547E-001   9.34526304E-001
   1.15000000E+002   9.40544150E-001   8.03719559E-001   9.40308524E-001
   1.20000000E+002   9.45761786E-001   8.03739158E-001   9.45568871E-001
   1.25000000E+002   9.50092917E-001   8.03753673E-001   9.49933938E-001
   1.30000000E+002   9.54227537E-001   8.03764619E-001   9.54095652E-001
   1.35000000E+002   9.57793299E-001   8.03773009E-001   9.57683216E-001
   1.40000000E+002   9.61361302E-001   8.03779533E-001   9.61268867E-001
   1.45000000E+002   9.64203039E-001   8.03784671E-001   9.64125014E-001
   1.50000000E+002   9.66991614E-001   8.03788764E-001   9.66925398E-001
   1.55000000E+002   9.69485141E-001   8.03792058E-001   9.69428673E-001
   1.60000000E+002   9.71681317E-001   8.03794734E-001   9.71632933E-001
   1.65000000E+002   9.73586444E-001   8.03796925E-001   9.73544807E-001
   1.70000000E+002   9.75608492E-001   8.03798734E-001   9.75572505E-001
   1.75000000E+002   9.77266010E-001   8.03800237E-001   9.77234787E-001
   1.80000000E+002   9.79053657E-001   8.03801494E-001   9.79026459E-001
   1.85000000E+002   9.80358035E-001   8.03802551E-001   9.80334263E-001
   1.90000000E+002   9.81691138E-001   8.03803445E-001   9.81670288E-001
   1.95000000E+002   9.82880336E-001   8.03804205E-001   9.82861989E-001
   2.00000000E+002   9.84176029E-001   8.03804854E-001   9.84159832E-001
   2.05000000E+002   9.85089566E-001   8.03805411E-001   9.85075228E-001
   2.10000000E+002   9.85963041E-001   8.03805890E-001   9.85950311E-001
   2.15000000E+002   9.86903167E-001   8.03806305E-001   9.86891834E-001
   2.20000000E+002   9.87776005E-001   8.03806665E-001   9.87765890E-001
   2.25000000E+002   9.88470228E-001   8.03806978E-001   9.88461177E-001
   2.30000000E+002   9.89138282E-001   8.03807252E-001   9.89130165E-001
   2.35000000E+002   9.89827076E-001   8.03807492E-001   9.89819779E-001
   2.40000000E+002   9.90438996E-001   8.03807703E-001   9.90432423E-001
   2.45000000E+002   9.91029753E-001   8.03807889E-001   9.91023818E-001
