# ./jetvheto -in n3lo-fixed-order/H125-LHC13-R04-mb-475-mt-1725-xmur100-xmuf050-log.fxd -xQ 0.25 -out benchmarks-n3lo-smallR/H125-LHC13-R04-mb-475-mt-1725-xmur100-xmuf050-xQ025-NNLO+NNLLa.R0-1.0.res -scheme a -order 2 -ptmax 500.01 -fixed_order 2 -small-r -loop-mass t+b -R0 1.0
# process = H    
# collider = pp   
# rts =  13000.000
# M   =    125.000
# muR =    125.000
# muF =     62.500
# Q   =     31.250
# p   =      5.000
# include_c1_squared =   F
# loop_mass  = t+b 
# alphas(MZ) =    0.11800
# alphas(M) =    0.11264
# alphas(muR) =    0.11264
# Rjet =      0.400
# order = NNLL
# pdf name and set = PDF4LHC15_nnlo_mc.LHgrid,    0
# matching scheme = a
# total cross sections [nb] at LO, NLOdiff, NNLOdiff, N3LOdiff =     0.011575    0.016866    0.010424    0.004163
#----------------------------------------------------------------------
# the lines that follow give the jet-veto efficiencies as a function of pt
#         pt            matched eff      resummed eff     fixed-order eff
   2.00000000E+001   4.68684833E-001   5.09817578E-001   4.89064583E-001
   2.50000000E+001   5.56380631E-001   5.81234634E-001   5.70034720E-001
   3.00000000E+001   6.24503478E-001   6.23543485E-001   6.32942870E-001
   3.50000000E+001   6.78153952E-001   6.46687747E-001   6.83258386E-001
   4.00000000E+001   7.21116566E-001   6.58884490E-001   7.24239561E-001
   4.50000000E+001   7.56500269E-001   6.65342106E-001   7.58461479E-001
   5.00000000E+001   7.85984678E-001   6.68863340E-001   7.87253375E-001
   5.50000000E+001   8.10817222E-001   6.70859659E-001   8.11661801E-001
   6.00000000E+001   8.32032553E-001   6.72037751E-001   8.32610002E-001
   6.50000000E+001   8.50272347E-001   6.72759702E-001   8.50676857E-001
   7.00000000E+001   8.66167676E-001   6.73217507E-001   8.66457347E-001
   7.50000000E+001   8.79941855E-001   6.73516808E-001   8.80153278E-001
   8.00000000E+001   8.92075552E-001   6.73717866E-001   8.92232619E-001
   8.50000000E+001   9.02813875E-001   6.73856229E-001   9.02932418E-001
   9.00000000E+001   9.12232573E-001   6.73953518E-001   9.12323320E-001
   9.50000000E+001   9.20562332E-001   6.74023259E-001   9.20632683E-001
   1.00000000E+002   9.28018875E-001   6.74074126E-001   9.28074069E-001
   1.05000000E+002   9.34672358E-001   6.74111813E-001   9.34716121E-001
   1.10000000E+002   9.40586964E-001   6.74140134E-001   9.40622008E-001
   1.15000000E+002   9.45932812E-001   6.74161693E-001   9.45961129E-001
   1.20000000E+002   9.50721408E-001   6.74178301E-001   9.50744483E-001
   1.25000000E+002   9.55081443E-001   6.74191235E-001   9.55100393E-001
   1.30000000E+002   9.58974656E-001   6.74201407E-001   9.58990329E-001
   1.35000000E+002   9.62497033E-001   6.74209482E-001   9.62510083E-001
   1.40000000E+002   9.65714886E-001   6.74215948E-001   9.65725821E-001
   1.45000000E+002   9.68624733E-001   6.74221166E-001   9.68633949E-001
   1.50000000E+002   9.71290081E-001   6.74225408E-001   9.71297891E-001
   1.55000000E+002   9.73710886E-001   6.74228881E-001   9.73717539E-001
   1.60000000E+002   9.75911751E-001   6.74231743E-001   9.75917445E-001
   1.65000000E+002   9.77908520E-001   6.74234115E-001   9.77913415E-001
   1.70000000E+002   9.79727558E-001   6.74236092E-001   9.79731786E-001
   1.75000000E+002   9.81414035E-001   6.74237750E-001   9.81417700E-001
   1.80000000E+002   9.82931986E-001   6.74239146E-001   9.82935177E-001
   1.85000000E+002   9.84344692E-001   6.74240328E-001   9.84347479E-001
   1.90000000E+002   9.85631812E-001   6.74241333E-001   9.85634255E-001
   1.95000000E+002   9.86809769E-001   6.74242191E-001   9.86811918E-001
   2.00000000E+002   9.87886416E-001   6.74242926E-001   9.87888312E-001
   2.05000000E+002   9.88879948E-001   6.74243560E-001   9.88881626E-001
   2.10000000E+002   9.89773619E-001   6.74244107E-001   9.89775108E-001
   2.15000000E+002   9.90620382E-001   6.74244581E-001   9.90621707E-001
   2.20000000E+002   9.91399207E-001   6.74244993E-001   9.91400389E-001
   2.25000000E+002   9.92092689E-001   6.74245353E-001   9.92093747E-001
   2.30000000E+002   9.92759737E-001   6.74245668E-001   9.92760685E-001
   2.35000000E+002   9.93350344E-001   6.74245944E-001   9.93351196E-001
   2.40000000E+002   9.93904203E-001   6.74246187E-001   9.93904970E-001
   2.45000000E+002   9.94403782E-001   6.74246402E-001   9.94404475E-001
