# ./jetvheto -in n3lo-fixed-order/H125-LHC13-R04-heft-xmur050-xmuf050-log.fxd -xQ 0.75 -out benchmarks-n3lo-smallR/H125-LHC13-R04-heft-xmur050-xmuf050-xQ075-N3LO+NNLLb.R0-0.5.res -scheme b -order 2 -ptmax 500.01 -fixed_order 3 -small-r -R0 0.5
# process = H    
# collider = pp   
# rts =  13000.000
# M   =    125.000
# muR =     62.500
# muF =     62.500
# Q   =     93.750
# p   =      5.000
# include_c1_squared =   F
# loop_mass  = none
# alphas(MZ) =    0.11800
# alphas(M) =    0.11264
# alphas(muR) =    0.12516
# Rjet =      0.400
# order = NNLL
# pdf name and set = PDF4LHC15_nnlo_mc.LHgrid,    0
# matching scheme = b
# total cross sections [nb] at LO, NLOdiff, NNLOdiff, N3LOdiff =     0.015055    0.019611    0.008998    0.001413
#----------------------------------------------------------------------
# the lines that follow give the jet-veto efficiencies as a function of pt
#         pt            matched eff      resummed eff     fixed-order eff
   2.00000000E+001   4.60725626E-001   5.36458926E-001   4.32272620E-001
   2.50000000E+001   5.46320656E-001   6.17908110E-001   5.20076688E-001
   3.00000000E+001   6.18533834E-001   6.75034807E-001   5.95188306E-001
   3.50000000E+001   6.75704850E-001   7.14790585E-001   6.54648121E-001
   4.00000000E+001   7.19876365E-001   7.42010655E-001   7.00880952E-001
   4.50000000E+001   7.58291027E-001   7.60100974E-001   7.41355940E-001
   5.00000000E+001   7.88769413E-001   7.71502100E-001   7.73800605E-001
   5.50000000E+001   8.15184523E-001   7.78013660E-001   8.02051238E-001
   6.00000000E+001   8.36574828E-001   7.80982718E-001   8.25176712E-001
   6.50000000E+001   8.56417663E-001   7.81449201E-001   8.46550538E-001
   7.00000000E+001   8.71519291E-001   7.80227406E-001   8.63110860E-001
   7.50000000E+001   8.85018936E-001   7.77953264E-001   8.77894218E-001
   8.00000000E+001   8.97234414E-001   7.75114741E-001   8.91221610E-001
   8.50000000E+001   9.08088445E-001   7.72070549E-001   9.03036791E-001
   9.00000000E+001   9.17711770E-001   7.69068297E-001   9.13482770E-001
   9.50000000E+001   9.25366075E-001   7.66262465E-001   9.21853677E-001
   1.00000000E+002   9.32691294E-001   7.63736830E-001   9.29768082E-001
   1.05000000E+002   9.38533397E-001   7.61523685E-001   9.36111694E-001
   1.10000000E+002   9.43971789E-001   7.59621388E-001   9.41960757E-001
   1.15000000E+002   9.49132530E-001   7.58008354E-001   9.47456202E-001
   1.20000000E+002   9.53814837E-001   7.56653186E-001   9.52413885E-001
   1.25000000E+002   9.57676668E-001   7.55521298E-001   9.56505189E-001
   1.30000000E+002   9.61064553E-001   7.54579088E-001   9.60082213E-001
   1.35000000E+002   9.64487790E-001   7.53795895E-001   9.63658956E-001
   1.40000000E+002   9.67598698E-001   7.53144844E-001   9.66896738E-001
   1.45000000E+002   9.70269520E-001   7.52603019E-001   9.69673261E-001
   1.50000000E+002   9.72350186E-001   7.52151219E-001   9.71842925E-001
   1.55000000E+002   9.74757891E-001   7.51773541E-001   9.74323047E-001
   1.60000000E+002   9.76943011E-001   7.51456905E-001   9.76568926E-001
   1.65000000E+002   9.78265831E-001   7.51190603E-001   9.77944247E-001
   1.70000000E+002   9.80011201E-001   7.50965885E-001   9.79732679E-001
   1.75000000E+002   9.81649862E-001   7.50775607E-001   9.81407724E-001
   1.80000000E+002   9.82909169E-001   7.50613931E-001   9.82698288E-001
   1.85000000E+002   9.84063218E-001   7.50476082E-001   9.83878937E-001
   1.90000000E+002   9.85259077E-001   7.50358145E-001   9.85097366E-001
   1.95000000E+002   9.86362953E-001   7.50256904E-001   9.86220604E-001
   2.00000000E+002   9.87348880E-001   7.50169708E-001   9.87223233E-001
   2.05000000E+002   9.88147791E-001   7.50094366E-001   9.88036656E-001
   2.10000000E+002   9.88960121E-001   7.50029063E-001   9.88861494E-001
   2.15000000E+002   9.89591965E-001   7.49972289E-001   9.89504277E-001
   2.20000000E+002   9.90486412E-001   7.49922786E-001   9.90408081E-001
   2.25000000E+002   9.90972770E-001   7.49879498E-001   9.90902794E-001
   2.30000000E+002   9.91564940E-001   7.49841541E-001   9.91502219E-001
   2.35000000E+002   9.92017581E-001   7.49808170E-001   9.91961268E-001
   2.40000000E+002   9.92504741E-001   7.49778755E-001   9.92454049E-001
   2.45000000E+002   9.93069919E-001   7.49752763E-001   9.93024154E-001
