# ./jetvheto -in n3lo-fixed-order/H125-LHC13-R04-mb-0-mt-1725-xmur100-xmuf050-log.fxd -xQ 0.25 -out benchmarks-n3lo-smallR/H125-LHC13-R04-mb-0-mt-1725-xmur100-xmuf050-xQ025-NNLO+NNLLb.res -scheme b -order 2 -ptmax 500.01 -fixed_order 2 -loop-mass t
# process = H    
# collider = pp   
# rts =  13000.000
# M   =    125.000
# muR =    125.000
# muF =     62.500
# Q   =     31.250
# p   =      5.000
# include_c1_squared =   F
# loop_mass  = t   
# alphas(MZ) =    0.11800
# alphas(M) =    0.11264
# alphas(muR) =    0.11264
# Rjet =      0.400
# order = NNLL
# pdf name and set = PDF4LHC15_nnlo_mc.LHgrid,    0
# matching scheme = b
# total cross sections [nb] at LO, NLOdiff, NNLOdiff, N3LOdiff =     0.012997    0.017347    0.010424    0.004163
#----------------------------------------------------------------------
# the lines that follow give the jet-veto efficiencies as a function of pt
#         pt            matched eff      resummed eff     fixed-order eff
   2.00000000E+001   3.88787748E-001   5.31778935E-001   3.35464478E-001
   2.50000000E+001   4.71783704E-001   6.06785665E-001   4.44581634E-001
   3.00000000E+001   5.41884366E-001   6.51228259E-001   5.28420724E-001
   3.50000000E+001   6.01598842E-001   6.75540935E-001   5.94978134E-001
   4.00000000E+001   6.52199299E-001   6.88353598E-001   6.48877858E-001
   4.50000000E+001   6.95025748E-001   6.95137344E-001   6.93298464E-001
   5.00000000E+001   7.31703796E-001   6.98836416E-001   7.30768118E-001
   5.50000000E+001   7.62538320E-001   7.00933558E-001   7.62009523E-001
   6.00000000E+001   7.89161327E-001   7.02171150E-001   7.88850765E-001
   6.50000000E+001   8.12204199E-001   7.02929563E-001   8.12015374E-001
   7.00000000E+001   8.32190113E-001   7.03410489E-001   8.32071711E-001
   7.50000000E+001   8.49530363E-001   7.03724907E-001   8.49453901E-001
   8.00000000E+001   8.64787684E-001   7.03936119E-001   8.64737072E-001
   8.50000000E+001   8.78262556E-001   7.04081470E-001   8.78228289E-001
   9.00000000E+001   8.90155572E-001   7.04183673E-001   8.90131888E-001
   9.50000000E+001   9.00617315E-001   7.04256936E-001   9.00600609E-001
   1.00000000E+002   9.10035979E-001   7.04310372E-001   9.10024002E-001
   1.05000000E+002   9.18303577E-001   7.04349962E-001   9.18294838E-001
   1.10000000E+002   9.25707569E-001   7.04379713E-001   9.25701100E-001
   1.15000000E+002   9.32374469E-001   7.04402362E-001   9.32369614E-001
   1.20000000E+002   9.38387052E-001   7.04419809E-001   9.38383362E-001
   1.25000000E+002   9.43860168E-001   7.04433395E-001   9.43857332E-001
   1.30000000E+002   9.48712749E-001   7.04444081E-001   9.48710541E-001
   1.35000000E+002   9.53094682E-001   7.04452564E-001   9.53092945E-001
   1.40000000E+002   9.57106098E-001   7.04459357E-001   9.57104719E-001
   1.45000000E+002   9.60769670E-001   7.04464838E-001   9.60768564E-001
   1.50000000E+002   9.64124402E-001   7.04469294E-001   9.64123509E-001
   1.55000000E+002   9.67148366E-001   7.04472943E-001   9.67147638E-001
   1.60000000E+002   9.69904040E-001   7.04475949E-001   9.69903441E-001
   1.65000000E+002   9.72403937E-001   7.04478441E-001   9.72403442E-001
   1.70000000E+002   9.74703869E-001   7.04480518E-001   9.74703456E-001
   1.75000000E+002   9.76789792E-001   7.04482259E-001   9.76789445E-001
   1.80000000E+002   9.78683044E-001   7.04483726E-001   9.78682751E-001
   1.85000000E+002   9.80438976E-001   7.04484968E-001   9.80438727E-001
   1.90000000E+002   9.82044881E-001   7.04486023E-001   9.82044669E-001
   1.95000000E+002   9.83517838E-001   7.04486925E-001   9.83517655E-001
   2.00000000E+002   9.84869503E-001   7.04487698E-001   9.84869345E-001
   2.05000000E+002   9.86107330E-001   7.04488363E-001   9.86107193E-001
   2.10000000E+002   9.87224825E-001   7.04488937E-001   9.87224706E-001
   2.15000000E+002   9.88279330E-001   7.04489435E-001   9.88279226E-001
   2.20000000E+002   9.89244849E-001   7.04489868E-001   9.89244758E-001
   2.25000000E+002   9.90113816E-001   7.04490246E-001   9.90113735E-001
   2.30000000E+002   9.90954139E-001   7.04490577E-001   9.90954068E-001
   2.35000000E+002   9.91687691E-001   7.04490867E-001   9.91687628E-001
   2.40000000E+002   9.92381943E-001   7.04491123E-001   9.92381887E-001
   2.45000000E+002   9.93017405E-001   7.04491348E-001   9.93017355E-001
