# ./jetvheto -in n3lo-fixed-order/H125-LHC13-R04-heft-xmur100-xmuf200-log.fxd -xQ 0.50 -out benchmarks-n3lo-smallR/H125-LHC13-R04-heft-xmur100-xmuf200-xQ050-N3LO+NNLLb.R0-0.5.res -scheme b -order 2 -ptmax 500.01 -fixed_order 3 -small-r -R0 0.5
# process = H    
# collider = pp   
# rts =  13000.000
# M   =    125.000
# muR =    125.000
# muF =    250.000
# Q   =     62.500
# p   =      5.000
# include_c1_squared =   F
# loop_mass  = none
# alphas(MZ) =    0.11800
# alphas(M) =    0.11264
# alphas(muR) =    0.11264
# Rjet =      0.400
# order = NNLL
# pdf name and set = PDF4LHC15_nnlo_mc.LHgrid,    0
# matching scheme = b
# total cross sections [nb] at LO, NLOdiff, NNLOdiff, N3LOdiff =     0.013467    0.016878    0.009991    0.003297
#----------------------------------------------------------------------
# the lines that follow give the jet-veto efficiencies as a function of pt
#         pt            matched eff      resummed eff     fixed-order eff
   2.00000000E+001   4.36901801E-001   5.27849665E-001   4.08633307E-001
   2.50000000E+001   5.24731464E-001   6.09125253E-001   5.05612486E-001
   3.00000000E+001   5.93562148E-001   6.66204396E-001   5.79536348E-001
   3.50000000E+001   6.50756048E-001   7.05773571E-001   6.40211114E-001
   4.00000000E+001   6.97709538E-001   7.32659837E-001   6.89575553E-001
   4.50000000E+001   7.35467907E-001   7.50421735E-001   7.29079420E-001
   5.00000000E+001   7.69354350E-001   7.61758032E-001   7.64379914E-001
   5.50000000E+001   7.96546211E-001   7.68731106E-001   7.92661473E-001
   6.00000000E+001   8.19858343E-001   7.72876222E-001   8.16843400E-001
   6.50000000E+001   8.39542508E-001   7.75275275E-001   8.37210998E-001
   7.00000000E+001   8.57844807E-001   7.76641559E-001   8.56043537E-001
   7.50000000E+001   8.72682659E-001   7.77415997E-001   8.71290208E-001
   8.00000000E+001   8.85603651E-001   7.77857436E-001   8.84523471E-001
   8.50000000E+001   8.97242984E-001   7.78112589E-001   8.96400813E-001
   9.00000000E+001   9.07094478E-001   7.78263046E-001   9.06433756E-001
   9.50000000E+001   9.16566549E-001   7.78353893E-001   9.16044203E-001
   1.00000000E+002   9.24389649E-001   7.78410198E-001   9.23973978E-001
   1.05000000E+002   9.31225314E-001   7.78446073E-001   9.30892000E-001
   1.10000000E+002   9.37096928E-001   7.78469564E-001   9.36827731E-001
   1.15000000E+002   9.42800213E-001   7.78485363E-001   9.42581111E-001
   1.20000000E+002   9.48019733E-001   7.78496261E-001   9.47840126E-001
   1.25000000E+002   9.52199501E-001   7.78503962E-001   9.52051387E-001
   1.30000000E+002   9.56294519E-001   7.78509525E-001   9.56171546E-001
   1.35000000E+002   9.59722217E-001   7.78513627E-001   9.59619514E-001
   1.40000000E+002   9.63323487E-001   7.78516707E-001   9.63237181E-001
   1.45000000E+002   9.66022163E-001   7.78519060E-001   9.65949287E-001
   1.50000000E+002   9.68768564E-001   7.78520885E-001   9.68706688E-001
   1.55000000E+002   9.71201985E-001   7.78522319E-001   9.71149200E-001
   1.60000000E+002   9.73292899E-001   7.78523460E-001   9.73247660E-001
   1.65000000E+002   9.75062217E-001   7.78524379E-001   9.75023283E-001
   1.70000000E+002   9.77085325E-001   7.78525125E-001   9.77051661E-001
   1.75000000E+002   9.78666917E-001   7.78525737E-001   9.78637707E-001
   1.80000000E+002   9.80492412E-001   7.78526243E-001   9.80466957E-001
   1.85000000E+002   9.81673992E-001   7.78526664E-001   9.81651744E-001
   1.90000000E+002   9.82958251E-001   7.78527017E-001   9.82938735E-001
   1.95000000E+002   9.84081983E-001   7.78527315E-001   9.84064810E-001
   2.00000000E+002   9.85410517E-001   7.78527568E-001   9.85395353E-001
   2.05000000E+002   9.86223324E-001   7.78527783E-001   9.86209901E-001
   2.10000000E+002   9.87014592E-001   7.78527968E-001   9.87002676E-001
   2.15000000E+002   9.87934810E-001   7.78528127E-001   9.87924200E-001
   2.20000000E+002   9.88791931E-001   7.78528264E-001   9.88782461E-001
   2.25000000E+002   9.89420696E-001   7.78528384E-001   9.89412223E-001
   2.30000000E+002   9.90033121E-001   7.78528488E-001   9.90025523E-001
   2.35000000E+002   9.90698470E-001   7.78528578E-001   9.90691638E-001
   2.40000000E+002   9.91284415E-001   7.78528658E-001   9.91278261E-001
   2.45000000E+002   9.91852214E-001   7.78528728E-001   9.91846658E-001
