# ./jetvheto -in n3lo-fixed-order/H125-LHC13-R04-mb-475-mt-1725-xmur200-xmuf100-log.fxd -xQ 0.25 -out benchmarks-n3lo-smallR/H125-LHC13-R04-mb-475-mt-1725-xmur200-xmuf100-xQ025-N3LO+NNLLb.res -scheme b -order 2 -ptmax 500.01 -fixed_order 3 -loop-mass t+b
# process = H    
# collider = pp   
# rts =  13000.000
# M   =    125.000
# muR =    250.000
# muF =    125.000
# Q   =     31.250
# p   =      5.000
# include_c1_squared =   F
# loop_mass  = t+b 
# alphas(MZ) =    0.11800
# alphas(M) =    0.11264
# alphas(muR) =    0.10244
# Rjet =      0.400
# order = NNLL
# pdf name and set = PDF4LHC15_nnlo_mc.LHgrid,    0
# matching scheme = b
# total cross sections [nb] at LO, NLOdiff, NNLOdiff, N3LOdiff =     0.010243    0.014468    0.010526    0.005600
#----------------------------------------------------------------------
# the lines that follow give the jet-veto efficiencies as a function of pt
#         pt            matched eff      resummed eff     fixed-order eff
   2.00000000E+001   4.12488105E-001   5.53858022E-001   3.89818525E-001
   2.50000000E+001   4.97141148E-001   6.27100201E-001   4.86093830E-001
   3.00000000E+001   5.69975687E-001   6.70121467E-001   5.64941031E-001
   3.50000000E+001   6.29096550E-001   6.93513159E-001   6.26766390E-001
   4.00000000E+001   6.77938610E-001   7.05793934E-001   6.76837357E-001
   4.50000000E+001   7.18442735E-001   7.12282063E-001   7.17902185E-001
   5.00000000E+001   7.52924771E-001   7.15815574E-001   7.52652485E-001
   5.50000000E+001   7.82394703E-001   7.17817434E-001   7.82254482E-001
   6.00000000E+001   8.07477709E-001   7.18998304E-001   8.07403331E-001
   6.50000000E+001   8.29664451E-001   7.19721775E-001   8.29625457E-001
   7.00000000E+001   8.48569006E-001   7.20180471E-001   8.48548309E-001
   7.50000000E+001   8.64488810E-001   7.20480324E-001   8.64477541E-001
   8.00000000E+001   8.78536181E-001   7.20681739E-001   8.78530213E-001
   8.50000000E+001   8.91079420E-001   7.20820342E-001   8.91076567E-001
   9.00000000E+001   9.01972323E-001   7.20917796E-001   9.01971116E-001
   9.50000000E+001   9.11808918E-001   7.20987654E-001   9.11808698E-001
   1.00000000E+002   9.20196054E-001   7.21038606E-001   9.20196285E-001
   1.05000000E+002   9.27739383E-001   7.21076354E-001   9.27739849E-001
   1.10000000E+002   9.34468417E-001   7.21104722E-001   9.34468996E-001
   1.15000000E+002   9.40533426E-001   7.21126317E-001   9.40534037E-001
   1.20000000E+002   9.45810773E-001   7.21142952E-001   9.45811365E-001
   1.25000000E+002   9.50506093E-001   7.21155906E-001   9.50506638E-001
   1.30000000E+002   9.55021863E-001   7.21166095E-001   9.55022375E-001
   1.35000000E+002   9.59039911E-001   7.21174183E-001   9.59040379E-001
   1.40000000E+002   9.62486011E-001   7.21180659E-001   9.62486427E-001
   1.45000000E+002   9.65749457E-001   7.21185885E-001   9.65749830E-001
   1.50000000E+002   9.68565785E-001   7.21190135E-001   9.68566114E-001
   1.55000000E+002   9.71448192E-001   7.21193613E-001   9.71448489E-001
   1.60000000E+002   9.73601156E-001   7.21196479E-001   9.73601413E-001
   1.65000000E+002   9.75791648E-001   7.21198855E-001   9.75791876E-001
   1.70000000E+002   9.77736798E-001   7.21200836E-001   9.77737000E-001
   1.75000000E+002   9.79584256E-001   7.21202496E-001   9.79584436E-001
   1.80000000E+002   9.81273237E-001   7.21203895E-001   9.81273397E-001
   1.85000000E+002   9.82806053E-001   7.21205078E-001   9.82806195E-001
   1.90000000E+002   9.83991953E-001   7.21206085E-001   9.83992078E-001
   1.95000000E+002   9.85350142E-001   7.21206944E-001   9.85350253E-001
   2.00000000E+002   9.86528525E-001   7.21207681E-001   9.86528625E-001
   2.05000000E+002   9.87567198E-001   7.21208315E-001   9.87567287E-001
   2.10000000E+002   9.88509431E-001   7.21208863E-001   9.88509511E-001
   2.15000000E+002   9.89474583E-001   7.21209338E-001   9.89474655E-001
   2.20000000E+002   9.90244619E-001   7.21209751E-001   9.90244684E-001
   2.25000000E+002   9.91014689E-001   7.21210111E-001   9.91014747E-001
   2.30000000E+002   9.91727927E-001   7.21210427E-001   9.91727980E-001
   2.35000000E+002   9.92388744E-001   7.21210703E-001   9.92388792E-001
   2.40000000E+002   9.92889076E-001   7.21210947E-001   9.92889118E-001
   2.45000000E+002   9.93480150E-001   7.21211162E-001   9.93480189E-001
