# ./jetvheto -in n3lo-fixed-order/H125-LHC13-R04-mb-0-mt-1725-xmur025-xmuf050-log.fxd -xQ 0.5 -out benchmarks-n3lo-smallR/H125-LHC13-R04-mb-0-mt-1725-xmur025-xmuf050-xQ050-NNLO+NNLLa.R0-1.0.res -scheme a -order 2 -ptmax 500.01 -small-r -fixed_order 2 -loop-mass t -R0 1.0
# process = H    
# collider = pp   
# rts =  13000.000
# M   =    125.000
# muR =     31.250
# muF =     62.500
# Q   =     62.500
# p   =      5.000
# include_c1_squared =   F
# loop_mass  = t   
# alphas(MZ) =    0.11800
# alphas(M) =    0.11264
# alphas(muR) =    0.14091
# Rjet =      0.400
# order = NNLL
# pdf name and set = PDF4LHC15_nnlo_mc.LHgrid,    0
# matching scheme = a
# total cross sections [nb] at LO, NLOdiff, NNLOdiff, N3LOdiff =     0.019855    0.024744    0.005009   -0.002663
#----------------------------------------------------------------------
# the lines that follow give the jet-veto efficiencies as a function of pt
#         pt            matched eff      resummed eff     fixed-order eff
   2.00000000E+001   4.92665847E-001   4.99854392E-001   4.32957478E-001
   2.50000000E+001   5.74407830E-001   5.67248373E-001   5.23268277E-001
   3.00000000E+001   6.38200363E-001   6.13644514E-001   5.94997758E-001
   3.50000000E+001   6.88886282E-001   6.45167236E-001   6.52852727E-001
   4.00000000E+001   7.29764925E-001   6.66103999E-001   7.00189076E-001
   4.50000000E+001   7.63300858E-001   6.79540447E-001   7.39439888E-001
   5.00000000E+001   7.91544163E-001   6.87789095E-001   7.72597069E-001
   5.50000000E+001   8.15176297E-001   6.92598133E-001   8.00363223E-001
   6.00000000E+001   8.35591451E-001   6.95249435E-001   8.24125039E-001
   6.50000000E+001   8.53409224E-001   6.96624993E-001   8.44589142E-001
   7.00000000E+001   8.69084693E-001   6.97290231E-001   8.62316742E-001
   7.50000000E+001   8.82763117E-001   6.97581725E-001   8.77562874E-001
   8.00000000E+001   8.94949708E-001   6.97687078E-001   8.90937501E-001
   8.50000000E+001   9.05800819E-001   6.97705231E-001   9.02686522E-001
   9.00000000E+001   9.15455356E-001   6.97686244E-001   9.13020832E-001
   9.50000000E+001   9.23935216E-001   6.97654251E-001   9.22017282E-001
   1.00000000E+002   9.31605461E-001   6.97620251E-001   9.30082050E-001
   1.05000000E+002   9.38320621E-001   6.97588828E-001   9.37101049E-001
   1.10000000E+002   9.44357758E-001   6.97561527E-001   9.43373741E-001
   1.15000000E+002   9.49769655E-001   6.97538536E-001   9.48969590E-001
   1.20000000E+002   9.54640829E-001   6.97519481E-001   9.53985574E-001
   1.25000000E+002   9.59063708E-001   6.97503812E-001   9.58523292E-001
   1.30000000E+002   9.62949968E-001   6.97490968E-001   9.62501393E-001
   1.35000000E+002   9.66473308E-001   6.97480440E-001   9.66098675E-001
   1.40000000E+002   9.69671298E-001   6.97471797E-001   9.69356558E-001
   1.45000000E+002   9.72555583E-001   6.97464682E-001   9.72289680E-001
   1.50000000E+002   9.75199833E-001   6.97458804E-001   9.74974013E-001
   1.55000000E+002   9.77565305E-001   6.97453930E-001   9.77372588E-001
   1.60000000E+002   9.79708027E-001   6.97449872E-001   9.79542793E-001
   1.65000000E+002   9.81630452E-001   6.97446478E-001   9.81488158E-001
   1.70000000E+002   9.83400218E-001   6.97443629E-001   9.83277166E-001
   1.75000000E+002   9.85009096E-001   6.97441226E-001   9.84902266E-001
   1.80000000E+002   9.86437584E-001   6.97439192E-001   9.86344489E-001
   1.85000000E+002   9.87758680E-001   6.97437463E-001   9.87677261E-001
   1.90000000E+002   9.88965991E-001   6.97435988E-001   9.88894543E-001
   1.95000000E+002   9.90055359E-001   6.97434725E-001   9.89992458E-001
   2.00000000E+002   9.91047339E-001   6.97433639E-001   9.90991790E-001
   2.05000000E+002   9.91958155E-001   6.97432702E-001   9.91908957E-001
   2.10000000E+002   9.92760880E-001   6.97431891E-001   9.92717184E-001
   2.15000000E+002   9.93525820E-001   6.97431187E-001   9.93486906E-001
   2.20000000E+002   9.94221789E-001   6.97430574E-001   9.94187045E-001
   2.25000000E+002   9.94822385E-001   6.97430039E-001   9.94791288E-001
   2.30000000E+002   9.95432974E-001   6.97429569E-001   9.95405075E-001
   2.35000000E+002   9.95941735E-001   6.97429157E-001   9.95916649E-001
   2.40000000E+002   9.96422220E-001   6.97428794E-001   9.96399614E-001
   2.45000000E+002   9.96860899E-001   6.97428473E-001   9.96840486E-001
