# ./jetvheto -in n3lo-fixed-order/H125-LHC13-R04-mb-475-mt-1725-xmur100-xmuf100-log.fxd -xQ 0.75 -out benchmarks-n3lo-smallR/H125-LHC13-R04-mb-475-mt-1725-xmur100-xmuf100-xQ075-NNLO+NNLLa.R0-1.5.res -scheme a -order 2 -ptmax 500.01 -fixed_order 2 -small-r -loop-mass t+b -R0 1.5
# process = H    
# collider = pp   
# rts =  13000.000
# M   =    125.000
# muR =    125.000
# muF =    125.000
# Q   =     93.750
# p   =      5.000
# include_c1_squared =   F
# loop_mass  = t+b 
# alphas(MZ) =    0.11800
# alphas(M) =    0.11264
# alphas(muR) =    0.11264
# Rjet =      0.400
# order = NNLL
# pdf name and set = PDF4LHC15_nnlo_mc.LHgrid,    0
# matching scheme = a
# total cross sections [nb] at LO, NLOdiff, NNLOdiff, N3LOdiff =     0.012292    0.016994    0.010146    0.003834
#----------------------------------------------------------------------
# the lines that follow give the jet-veto efficiencies as a function of pt
#         pt            matched eff      resummed eff     fixed-order eff
   2.00000000E+001   5.02145652E-001   5.39244792E-001   4.93150502E-001
   2.50000000E+001   5.91974193E-001   6.19680994E-001   5.75024850E-001
   3.00000000E+001   6.62172118E-001   6.76469855E-001   6.38301171E-001
   3.50000000E+001   7.17673263E-001   7.16257801E-001   6.88801162E-001
   4.00000000E+001   7.61679716E-001   7.43720062E-001   7.29800784E-001
   4.50000000E+001   7.96894231E-001   7.62166680E-001   7.63713984E-001
   5.00000000E+001   8.25243536E-001   7.73966649E-001   7.92155543E-001
   5.50000000E+001   8.48086741E-001   7.80872788E-001   8.16168137E-001
   6.00000000E+001   8.66775790E-001   7.84214256E-001   8.36797648E-001
   6.50000000E+001   8.82110902E-001   7.85023235E-001   8.54584097E-001
   7.00000000E+001   8.94754263E-001   7.84109699E-001   8.69965602E-001
   7.50000000E+001   9.05305803E-001   7.82106403E-001   8.83354565E-001
   8.00000000E+001   9.14315168E-001   7.79500094E-001   8.95150407E-001
   8.50000000E+001   9.21977580E-001   7.76650635E-001   9.05446499E-001
   9.00000000E+001   9.28757458E-001   7.73809083E-001   9.14630889E-001
   9.50000000E+001   9.34692233E-001   7.71135018E-001   9.22708788E-001
   1.00000000E+002   9.40007201E-001   7.68716671E-001   9.29893229E-001
   1.05000000E+002   9.44840701E-001   7.66590482E-001   9.36331059E-001
   1.10000000E+002   9.49156536E-001   7.64758484E-001   9.42008406E-001
   1.15000000E+002   9.53160328E-001   7.63202291E-001   9.47155949E-001
   1.20000000E+002   9.56757680E-001   7.61893082E-001   9.51709725E-001
   1.25000000E+002   9.60129692E-001   7.60798484E-001   9.55877636E-001
   1.30000000E+002   9.63211045E-001   7.59886587E-001   9.59620741E-001
   1.35000000E+002   9.66062211E-001   7.59128094E-001   9.63021762E-001
   1.40000000E+002   9.68651577E-001   7.58497245E-001   9.66068699E-001
   1.45000000E+002   9.71088768E-001   7.57972011E-001   9.68886869E-001
   1.50000000E+002   9.73282724E-001   7.57533896E-001   9.71399196E-001
   1.55000000E+002   9.75338982E-001   7.57167554E-001   9.73721950E-001
   1.60000000E+002   9.77215778E-001   7.56860353E-001   9.75822606E-001
   1.65000000E+002   9.78945747E-001   7.56601936E-001   9.77741229E-001
   1.70000000E+002   9.80546057E-001   7.56383838E-001   9.79501024E-001
   1.75000000E+002   9.81999576E-001   7.56199140E-001   9.81089888E-001
   1.80000000E+002   9.83346780E-001   7.56042188E-001   9.82552292E-001
   1.85000000E+002   9.84583619E-001   7.55908355E-001   9.83887543E-001
   1.90000000E+002   9.85728225E-001   7.55793844E-001   9.85116487E-001
   1.95000000E+002   9.86802467E-001   7.55695537E-001   9.86263234E-001
   2.00000000E+002   9.87777604E-001   7.55610863E-001   9.87300933E-001
   2.05000000E+002   9.88687596E-001   7.55537697E-001   9.88265058E-001
   2.10000000E+002   9.89520134E-001   7.55474278E-001   9.89144590E-001
   2.15000000E+002   9.90271709E-001   7.55419139E-001   9.89937088E-001
   2.20000000E+002   9.90983819E-001   7.55371060E-001   9.90684915E-001
   2.25000000E+002   9.91636394E-001   7.55329016E-001   9.91368764E-001
   2.30000000E+002   9.92239477E-001   7.55292150E-001   9.91999301E-001
   2.35000000E+002   9.92805163E-001   7.55259736E-001   9.92589146E-001
   2.40000000E+002   9.93313479E-001   7.55231165E-001   9.93118784E-001
   2.45000000E+002   9.93796886E-001   7.55205918E-001   9.93621047E-001
