# ./jetvheto -in n3lo-fixed-order/H125-LHC13-R04-mb-475-mt-1725-xmur050-xmuf050-log.fxd -xQ 0.75 -out benchmarks-n3lo-smallR/H125-LHC13-R04-mb-475-mt-1725-xmur050-xmuf050-xQ075-N3LO+NNLLb.R0-2.0.res -scheme b -order 2 -ptmax 500.01 -fixed_order 3 -small-r -loop-mass t+b -R0 2.0
# process = H    
# collider = pp   
# rts =  13000.000
# M   =    125.000
# muR =     62.500
# muF =     62.500
# Q   =     93.750
# p   =      5.000
# include_c1_squared =   F
# loop_mass  = t+b 
# alphas(MZ) =    0.11800
# alphas(M) =    0.11264
# alphas(muR) =    0.12516
# Rjet =      0.400
# order = NNLL
# pdf name and set = PDF4LHC15_nnlo_mc.LHgrid,    0
# matching scheme = b
# total cross sections [nb] at LO, NLOdiff, NNLOdiff, N3LOdiff =     0.014147    0.020254    0.008998    0.001413
#----------------------------------------------------------------------
# the lines that follow give the jet-veto efficiencies as a function of pt
#         pt            matched eff      resummed eff     fixed-order eff
   2.00000000E+001   4.81793194E-001   5.54484252E-001   4.22880362E-001
   2.50000000E+001   5.61602430E-001   6.23333257E-001   5.10871357E-001
   3.00000000E+001   6.29736386E-001   6.70936251E-001   5.86554172E-001
   3.50000000E+001   6.84068264E-001   7.03541076E-001   6.46974526E-001
   4.00000000E+001   7.25955763E-001   7.25390694E-001   6.94053894E-001
   4.50000000E+001   7.62945403E-001   7.39444486E-001   7.35572065E-001
   5.00000000E+001   7.92371277E-001   7.47814212E-001   7.68984657E-001
   5.50000000E+001   8.17998264E-001   7.52056560E-001   7.98072300E-001
   6.00000000E+001   8.38926447E-001   7.53337212E-001   8.22057983E-001
   6.50000000E+001   8.58439313E-001   7.52558197E-001   8.44160448E-001
   7.00000000E+001   8.73351232E-001   7.50427317E-001   8.61397413E-001
   7.50000000E+001   8.86765329E-001   7.47497432E-001   8.76789719E-001
   8.00000000E+001   8.98999842E-001   7.44191529E-001   8.90691953E-001
   8.50000000E+001   9.09952101E-001   7.40817868E-001   9.03050366E-001
   9.00000000E+001   9.19619420E-001   7.37585468E-001   9.13896477E-001
   9.50000000E+001   9.27360091E-001   7.34619929E-001   9.22639584E-001
   1.00000000E+002   9.34828330E-001   7.31983842E-001   9.30924075E-001
   1.05000000E+002   9.40839698E-001   7.29694311E-001   9.37618957E-001
   1.10000000E+002   9.46385757E-001   7.27739019E-001   9.43720915E-001
   1.15000000E+002   9.51716175E-001   7.26088992E-001   9.49502090E-001
   1.20000000E+002   9.56524280E-001   7.24707783E-001   9.54678868E-001
   1.25000000E+002   9.60544323E-001   7.23557373E-001   9.59003817E-001
   1.30000000E+002   9.64054343E-001   7.22601831E-001   9.62764111E-001
   1.35000000E+002   9.67577582E-001   7.21808920E-001   9.66490458E-001
   1.40000000E+002   9.70800401E-001   7.21150689E-001   9.69880698E-001
   1.45000000E+002   9.73588022E-001   7.20603489E-001   9.72807360E-001
   1.50000000E+002   9.75766983E-001   7.20147611E-001   9.75102905E-001
   1.55000000E+002   9.78277662E-001   7.19766799E-001   9.77708768E-001
   1.60000000E+002   9.80527946E-001   7.19447726E-001   9.80038790E-001
   1.65000000E+002   9.81911295E-001   7.19179505E-001   9.81490611E-001
   1.70000000E+002   9.83688584E-001   7.18953260E-001   9.83324317E-001
   1.75000000E+002   9.85365907E-001   7.18761754E-001   9.85049293E-001
   1.80000000E+002   9.86643345E-001   7.18599081E-001   9.86367565E-001
   1.85000000E+002   9.87824992E-001   7.18460415E-001   9.87583960E-001
   1.90000000E+002   9.89031380E-001   7.18341804E-001   9.88819869E-001
   1.95000000E+002   9.90144420E-001   7.18240002E-001   9.89958231E-001
   2.00000000E+002   9.91125764E-001   7.18152335E-001   9.90961409E-001
   2.05000000E+002   9.91908133E-001   7.18076597E-001   9.91762726E-001
   2.10000000E+002   9.92689937E-001   7.18010957E-001   9.92560879E-001
   2.15000000E+002   9.93302946E-001   7.17953897E-001   9.93188169E-001
   2.20000000E+002   9.94174951E-001   7.17904147E-001   9.94072436E-001
   2.25000000E+002   9.94625670E-001   7.17860647E-001   9.94534058E-001
   2.30000000E+002   9.95176822E-001   7.17822506E-001   9.95094697E-001
   2.35000000E+002   9.95586281E-001   7.17788975E-001   9.95512527E-001
   2.40000000E+002   9.96027039E-001   7.17759421E-001   9.95960635E-001
   2.45000000E+002   9.96534508E-001   7.17733307E-001   9.96474558E-001
