# ./jetvheto -in n3lo-fixed-order/H125-LHC13-R04-mb-0-mt-1725-xmur025-xmuf025-log.fxd -xQ 0.5 -out benchmarks-n3lo-smallR/H125-LHC13-R04-mb-0-mt-1725-xmur025-xmuf025-xQ050-NNLO+NNLLa.R0-1.5.res -scheme a -order 2 -ptmax 500.01 -small-r -fixed_order 2 -loop-mass t -R0 1.5
# process = H    
# collider = pp   
# rts =  13000.000
# M   =    125.000
# muR =     31.250
# muF =     31.250
# Q   =     62.500
# p   =      5.000
# include_c1_squared =   F
# loop_mass  = t   
# alphas(MZ) =    0.11800
# alphas(M) =    0.11264
# alphas(muR) =    0.14091
# Rjet =      0.400
# order = NNLL
# pdf name and set = PDF4LHC15_nnlo_mc.LHgrid,    0
# matching scheme = a
# total cross sections [nb] at LO, NLOdiff, NNLOdiff, N3LOdiff =     0.018140    0.025356    0.006043   -0.002471
#----------------------------------------------------------------------
# the lines that follow give the jet-veto efficiencies as a function of pt
#         pt            matched eff      resummed eff     fixed-order eff
   2.00000000E+001   4.91289152E-001   5.04300905E-001   4.30690105E-001
   2.50000000E+001   5.71484863E-001   5.70480113E-001   5.20586602E-001
   3.00000000E+001   6.34528467E-001   6.16405150E-001   5.92014950E-001
   3.50000000E+001   6.85191907E-001   6.47837504E-001   6.50064662E-001
   4.00000000E+001   7.26348296E-001   6.68898417E-001   6.97703316E-001
   4.50000000E+001   7.60293794E-001   6.82560776E-001   7.37303585E-001
   5.00000000E+001   7.88805106E-001   6.91061107E-001   7.70617108E-001
   5.50000000E+001   8.12998560E-001   6.96106988E-001   7.98809609E-001
   6.00000000E+001   8.33908963E-001   6.98959686E-001   8.22950709E-001
   6.50000000E+001   8.52165071E-001   7.00496902E-001   8.43751279E-001
   7.00000000E+001   8.68244181E-001   7.01287054E-001   8.61797081E-001
   7.50000000E+001   8.82242592E-001   7.01672836E-001   8.77294866E-001
   8.00000000E+001   8.94833858E-001   7.01848656E-001   8.91020454E-001
   8.50000000E+001   9.05934994E-001   7.01919357E-001   9.02978081E-001
   9.00000000E+001   9.15849291E-001   7.01939540E-001   9.13539336E-001
   9.50000000E+001   9.24563969E-001   7.01936848E-001   9.22745123E-001
   1.00000000E+002   9.32411908E-001   7.01924911E-001   9.30967926E-001
   1.05000000E+002   9.39451948E-001   7.01910229E-001   9.38296175E-001
   1.10000000E+002   9.45701991E-001   7.01895740E-001   9.44769617E-001
   1.15000000E+002   9.51367378E-001   7.01882637E-001   9.50609371E-001
   1.20000000E+002   9.56428557E-001   7.01871283E-001   9.55807756E-001
   1.25000000E+002   9.60884836E-001   7.01861661E-001   9.60372878E-001
   1.30000000E+002   9.64955583E-001   7.01853605E-001   9.64530604E-001
   1.35000000E+002   9.68616050E-001   7.01846898E-001   9.68261090E-001
   1.40000000E+002   9.71913093E-001   7.01841327E-001   9.71614842E-001
   1.45000000E+002   9.74932014E-001   7.01836699E-001   9.74680018E-001
   1.50000000E+002   9.77610264E-001   7.01832849E-001   9.77396235E-001
   1.55000000E+002   9.80034200E-001   7.01829639E-001   9.79851516E-001
   1.60000000E+002   9.82251605E-001   7.01826954E-001   9.82094946E-001
   1.65000000E+002   9.84263513E-001   7.01824701E-001   9.84128581E-001
   1.70000000E+002   9.86048655E-001   7.01822804E-001   9.85931948E-001
   1.75000000E+002   9.87682453E-001   7.01821200E-001   9.87581113E-001
   1.80000000E+002   9.89164097E-001   7.01819839E-001   9.89075767E-001
   1.85000000E+002   9.90487145E-001   7.01818681E-001   9.90409877E-001
   1.90000000E+002   9.91715301E-001   7.01817691E-001   9.91647482E-001
   1.95000000E+002   9.92842664E-001   7.01816842E-001   9.92782944E-001
   2.00000000E+002   9.93839011E-001   7.01816112E-001   9.93786262E-001
   2.05000000E+002   9.94768331E-001   7.01815481E-001   9.94721603E-001
   2.10000000E+002   9.95622233E-001   7.01814935E-001   9.95580722E-001
   2.15000000E+002   9.96345528E-001   7.01814460E-001   9.96308554E-001
   2.20000000E+002   9.97035048E-001   7.01814047E-001   9.97002030E-001
   2.25000000E+002   9.97670626E-001   7.01813685E-001   9.97641068E-001
   2.30000000E+002   9.98221099E-001   7.01813369E-001   9.98194576E-001
   2.35000000E+002   9.98721950E-001   7.01813090E-001   9.98698098E-001
   2.40000000E+002   9.99166583E-001   7.01812845E-001   9.99145086E-001
   2.45000000E+002   9.99582994E-001   7.01812628E-001   9.99563579E-001
