# ./jetvheto -in n3lo-fixed-order/H125-LHC13-R04-mb-475-mt-1725-xmur100-xmuf200-log.fxd -xQ 0.25 -out benchmarks-n3lo-smallR/H125-LHC13-R04-mb-475-mt-1725-xmur100-xmuf200-xQ025-NNLO+NNLLb.R0-1.0.res -scheme b -order 2 -ptmax 500.01 -fixed_order 2 -small-r -loop-mass t+b -R0 1.0
# process = H    
# collider = pp   
# rts =  13000.000
# M   =    125.000
# muR =    125.000
# muF =    250.000
# Q   =     31.250
# p   =      5.000
# include_c1_squared =   F
# loop_mass  = t+b 
# alphas(MZ) =    0.11800
# alphas(M) =    0.11264
# alphas(muR) =    0.11264
# Rjet =      0.400
# order = NNLL
# pdf name and set = PDF4LHC15_nnlo_mc.LHgrid,    0
# matching scheme = b
# total cross sections [nb] at LO, NLOdiff, NNLOdiff, N3LOdiff =     0.012791    0.017144    0.009991    0.003297
#----------------------------------------------------------------------
# the lines that follow give the jet-veto efficiencies as a function of pt
#         pt            matched eff      resummed eff     fixed-order eff
   2.00000000E+001   3.82428710E-001   5.32534892E-001   3.29106479E-001
   2.50000000E+001   4.66543712E-001   6.01622425E-001   4.39529527E-001
   3.00000000E+001   5.37537699E-001   6.41986390E-001   5.24122484E-001
   3.50000000E+001   5.97978104E-001   6.63848835E-001   5.91301191E-001
   4.00000000E+001   6.49152585E-001   6.75297962E-001   6.45740756E-001
   4.50000000E+001   6.92528180E-001   6.81337661E-001   6.90716080E-001
   5.00000000E+001   7.29264396E-001   6.84624074E-001   7.28255957E-001
   5.50000000E+001   7.60579225E-001   6.86485006E-001   7.59993542E-001
   6.00000000E+001   7.87281840E-001   6.87582425E-001   7.86927122E-001
   6.50000000E+001   8.10366267E-001   6.88254651E-001   8.10143416E-001
   7.00000000E+001   8.30448707E-001   6.88680808E-001   8.30304175E-001
   7.50000000E+001   8.47885938E-001   6.88959371E-001   8.47789344E-001
   8.00000000E+001   8.63236491E-001   6.89146477E-001   8.63170279E-001
   8.50000000E+001   8.76639792E-001   6.89275228E-001   8.76593282E-001
   9.00000000E+001   8.88505620E-001   6.89365754E-001   8.88472295E-001
   9.50000000E+001   8.98975709E-001   6.89430644E-001   8.98951354E-001
   1.00000000E+002   9.08207066E-001   6.89477972E-001   9.08188939E-001
   1.05000000E+002   9.16539810E-001   6.89513036E-001   9.16526121E-001
   1.10000000E+002   9.23955673E-001   6.89539385E-001   9.23945186E-001
   1.15000000E+002   9.30601661E-001   6.89559444E-001   9.30593517E-001
   1.20000000E+002   9.36558604E-001   6.89574895E-001   9.36552205E-001
   1.25000000E+002   9.41894986E-001   6.89586928E-001   9.41889900E-001
   1.30000000E+002   9.46707564E-001   6.89596392E-001   9.46703480E-001
   1.35000000E+002   9.51100939E-001   6.89603905E-001   9.51097632E-001
   1.40000000E+002   9.55055176E-001   6.89609920E-001   9.55052473E-001
   1.45000000E+002   9.58635267E-001   6.89614774E-001   9.58633039E-001
   1.50000000E+002   9.61900156E-001   6.89618721E-001   9.61898307E-001
   1.55000000E+002   9.64858028E-001   6.89621952E-001   9.64856482E-001
   1.60000000E+002   9.67587180E-001   6.89624614E-001   9.67585880E-001
   1.65000000E+002   9.70071452E-001   6.89626821E-001   9.70070351E-001
   1.70000000E+002   9.72331701E-001   6.89628661E-001   9.72330764E-001
   1.75000000E+002   9.74363395E-001   6.89630203E-001   9.74362593E-001
   1.80000000E+002   9.76262774E-001   6.89631502E-001   9.76262084E-001
   1.85000000E+002   9.78008952E-001   6.89632601E-001   9.78008356E-001
   1.90000000E+002   9.79585161E-001   6.89633536E-001   9.79584644E-001
   1.95000000E+002   9.81045070E-001   6.89634335E-001   9.81044620E-001
   2.00000000E+002   9.82375034E-001   6.89635019E-001   9.82374640E-001
   2.05000000E+002   9.83611431E-001   6.89635608E-001   9.83611085E-001
   2.10000000E+002   9.84755118E-001   6.89636117E-001   9.84754813E-001
   2.15000000E+002   9.85809607E-001   6.89636558E-001   9.85809338E-001
   2.20000000E+002   9.86776445E-001   6.89636942E-001   9.86776206E-001
   2.25000000E+002   9.87663916E-001   6.89637276E-001   9.87663703E-001
   2.30000000E+002   9.88499330E-001   6.89637569E-001   9.88499140E-001
   2.35000000E+002   9.89277758E-001   6.89637826E-001   9.89277589E-001
   2.40000000E+002   9.89963895E-001   6.89638053E-001   9.89963744E-001
   2.45000000E+002   9.90625160E-001   6.89638252E-001   9.90625024E-001
