# ./jetvheto -in n3lo-fixed-order/H125-LHC13-R04-heft-xmur100-xmuf100-log.fxd -xQ 1.00 -out benchmarks-n3lo-smallR/H125-LHC13-R04-heft-xmur100-xmuf100-xQ100-N3LO+NNLLb.R0-1.0.res -scheme b -order 2 -ptmax 500.01 -fixed_order 3 -small-r -R0 1.0
# process = H    
# collider = pp   
# rts =  13000.000
# M   =    125.000
# muR =    125.000
# muF =    125.000
# Q   =    125.000
# p   =      5.000
# include_c1_squared =   F
# loop_mass  = none
# alphas(MZ) =    0.11800
# alphas(M) =    0.11264
# alphas(muR) =    0.11264
# Rjet =      0.400
# order = NNLL
# pdf name and set = PDF4LHC15_nnlo_mc.LHgrid,    0
# matching scheme = b
# total cross sections [nb] at LO, NLOdiff, NNLOdiff, N3LOdiff =     0.012945    0.016716    0.010146    0.003834
#----------------------------------------------------------------------
# the lines that follow give the jet-veto efficiencies as a function of pt
#         pt            matched eff      resummed eff     fixed-order eff
   2.00000000E+001   4.53016625E-001   5.89387693E-001   4.08842854E-001
   2.50000000E+001   5.38199909E-001   6.77579233E-001   5.02042917E-001
   3.00000000E+001   6.10992116E-001   7.39502929E-001   5.80189507E-001
   3.50000000E+001   6.67863783E-001   7.82656526E-001   6.40535859E-001
   4.00000000E+001   7.14081462E-001   8.12270366E-001   6.89380469E-001
   4.50000000E+001   7.51540679E-001   8.31979938E-001   7.29072921E-001
   5.00000000E+001   7.83278924E-001   8.44370422E-001   7.62718280E-001
   5.50000000E+001   8.10357121E-001   8.51320356E-001   7.91464926E-001
   6.00000000E+001   8.33008751E-001   8.54208124E-001   8.15679320E-001
   6.50000000E+001   8.53285258E-001   8.54066542E-001   8.37307615E-001
   7.00000000E+001   8.70169689E-001   8.51691490E-001   8.55527758E-001
   7.50000000E+001   8.83940226E-001   8.47704769E-001   8.70653294E-001
   8.00000000E+001   8.95953188E-001   8.42602075E-001   8.83928611E-001
   8.50000000E+001   9.06806885E-001   8.36782177E-001   8.95926690E-001
   9.00000000E+001   9.15954797E-001   8.30567808E-001   9.06183068E-001
   9.50000000E+001   9.24337998E-001   8.24216399E-001   9.15566581E-001
   1.00000000E+002   9.31193715E-001   8.17931775E-001   9.23392937E-001
   1.05000000E+002   9.37332900E-001   8.11869863E-001   9.30416744E-001
   1.10000000E+002   9.42877876E-001   8.06143607E-001   9.36761850E-001
   1.15000000E+002   9.47832896E-001   8.00829111E-001   9.42442779E-001
   1.20000000E+002   9.52121860E-001   7.95969771E-001   9.47391165E-001
   1.25000000E+002   9.55803686E-001   7.91582296E-001   9.51667329E-001
   1.30000000E+002   9.59570448E-001   7.87662524E-001   9.55942935E-001
   1.35000000E+002   9.62889837E-001   7.84191027E-001   9.59715852E-001
   1.40000000E+002   9.65633313E-001   7.81138160E-001   9.62864552E-001
   1.45000000E+002   9.68312464E-001   7.78468319E-001   9.65893331E-001
   1.50000000E+002   9.70565302E-001   7.76143313E-001   9.68454154E-001
   1.55000000E+002   9.73053748E-001   7.74124792E-001   9.71201993E-001
   1.60000000E+002   9.74694739E-001   7.72375929E-001   9.73079465E-001
   1.65000000E+002   9.76511383E-001   7.70862513E-001   9.75095505E-001
   1.70000000E+002   9.78115116E-001   7.69553478E-001   9.76872986E-001
   1.75000000E+002   9.79699557E-001   7.68421097E-001   9.78606495E-001
   1.80000000E+002   9.81165621E-001   7.67440947E-001   9.80201996E-001
   1.85000000E+002   9.82489123E-001   7.66591727E-001   9.81638090E-001
   1.90000000E+002   9.83396819E-001   7.65854992E-001   9.82646032E-001
   1.95000000E+002   9.84618906E-001   7.65214860E-001   9.83952600E-001
   2.00000000E+002   9.85664098E-001   7.64657705E-001   9.85072030E-001
   2.05000000E+002   9.86559946E-001   7.64171865E-001   9.86033119E-001
   2.10000000E+002   9.87375768E-001   7.63747381E-001   9.86906031E-001
   2.15000000E+002   9.88288913E-001   7.63375748E-001   9.87868512E-001
   2.20000000E+002   9.88952477E-001   7.63049709E-001   9.88576191E-001
   2.25000000E+002   9.89661045E-001   7.62763070E-001   9.89323232E-001
   2.30000000E+002   9.90328504E-001   7.62510537E-001   9.90024614E-001
   2.35000000E+002   9.90957260E-001   7.62287584E-001   9.90683369E-001
   2.40000000E+002   9.91392390E-001   7.62090335E-001   9.91145412E-001
   2.45000000E+002   9.91971620E-001   7.61915467E-001   9.91748108E-001
