# ./jetvheto -in n3lo-fixed-order/H125-LHC13-R04-mb-475-mt-1725-xmur100-xmuf100-log.fxd -xQ 0.333 -out benchmarks-n3lo-smallR/H125-LHC13-R04-mb-475-mt-1725-xmur100-xmuf100-xQ033-N3LO+NNLLa.res -scheme a -order 2 -ptmax 500.01 -fixed_order 3 -loop-mass t+b
# process = H    
# collider = pp   
# rts =  13000.000
# M   =    125.000
# muR =    125.000
# muF =    125.000
# Q   =     41.625
# p   =      5.000
# include_c1_squared =   F
# loop_mass  = t+b 
# alphas(MZ) =    0.11800
# alphas(M) =    0.11264
# alphas(muR) =    0.11264
# Rjet =      0.400
# order = NNLL
# pdf name and set = PDF4LHC15_nnlo_mc.LHgrid,    0
# matching scheme = a
# total cross sections [nb] at LO, NLOdiff, NNLOdiff, N3LOdiff =     0.012292    0.016994    0.010146    0.003834
#----------------------------------------------------------------------
# the lines that follow give the jet-veto efficiencies as a function of pt
#         pt            matched eff      resummed eff     fixed-order eff
   2.00000000E+001   4.45715428E-001   5.04497701E-001   4.51319368E-001
   2.50000000E+001   5.32721432E-001   5.81847911E-001   5.36825698E-001
   3.00000000E+001   6.05822794E-001   6.34064457E-001   6.08858675E-001
   3.50000000E+001   6.63103879E-001   6.67834562E-001   6.64947540E-001
   4.00000000E+001   7.09289515E-001   6.88762227E-001   7.10355778E-001
   4.50000000E+001   7.46846004E-001   7.01351583E-001   7.47456588E-001
   5.00000000E+001   7.78608691E-001   7.08849615E-001   7.78978104E-001
   5.50000000E+001   8.05693560E-001   7.13350038E-001   8.05930820E-001
   6.00000000E+001   8.28560575E-001   7.16103226E-001   8.28717070E-001
   6.50000000E+001   8.48953998E-001   7.17829287E-001   8.49064316E-001
   7.00000000E+001   8.66189372E-001   7.18939950E-001   8.66268025E-001
   7.50000000E+001   8.80474980E-001   7.19673072E-001   8.80530885E-001
   8.00000000E+001   8.93075624E-001   7.20168730E-001   8.93116387E-001
   8.50000000E+001   9.04431437E-001   7.20511331E-001   9.04462211E-001
   9.00000000E+001   9.14170232E-001   7.20752973E-001   9.14193494E-001
   9.50000000E+001   9.23064392E-001   7.20926570E-001   9.23082480E-001
   1.00000000E+002   9.30497238E-001   7.21053388E-001   9.30511231E-001
   1.05000000E+002   9.37189859E-001   7.21147455E-001   9.37200842E-001
   1.10000000E+002   9.43189715E-001   7.21218206E-001   9.43198469E-001
   1.15000000E+002   9.48580596E-001   7.21272103E-001   9.48587632E-001
   1.20000000E+002   9.53232205E-001   7.21313641E-001   9.53237889E-001
   1.25000000E+002   9.57310668E-001   7.21346001E-001   9.57315271E-001
   1.30000000E+002   9.61363002E-001   7.21371461E-001   9.61366818E-001
   1.35000000E+002   9.64933455E-001   7.21391678E-001   9.64936627E-001
   1.40000000E+002   9.67926555E-001   7.21407867E-001   9.67929190E-001
   1.45000000E+002   9.70797226E-001   7.21420934E-001   9.70799436E-001
   1.50000000E+002   9.73230060E-001   7.21431560E-001   9.73231918E-001
   1.55000000E+002   9.75843447E-001   7.21440259E-001   9.75845039E-001
   1.60000000E+002   9.77614300E-001   7.21447428E-001   9.77615642E-001
   1.65000000E+002   9.79522537E-001   7.21453371E-001   9.79523686E-001
   1.70000000E+002   9.81189807E-001   7.21458325E-001   9.81190793E-001
   1.75000000E+002   9.82812610E-001   7.21462478E-001   9.82813463E-001
   1.80000000E+002   9.84291970E-001   7.21465977E-001   9.84292712E-001
   1.85000000E+002   9.85628945E-001   7.21468938E-001   9.85629591E-001
   1.90000000E+002   9.86565475E-001   7.21471456E-001   9.86566035E-001
   1.95000000E+002   9.87769119E-001   7.21473606E-001   9.87769612E-001
   2.00000000E+002   9.88790844E-001   7.21475450E-001   9.88791277E-001
   2.05000000E+002   9.89667023E-001   7.21477037E-001   9.89667405E-001
   2.10000000E+002   9.90458525E-001   7.21478407E-001   9.90458863E-001
   2.15000000E+002   9.91323004E-001   7.21479595E-001   9.91323305E-001
   2.20000000E+002   9.91955325E-001   7.21480629E-001   9.91955592E-001
   2.25000000E+002   9.92619345E-001   7.21481530E-001   9.92619584E-001
   2.30000000E+002   9.93235718E-001   7.21482319E-001   9.93235932E-001
   2.35000000E+002   9.93804611E-001   7.21483012E-001   9.93804803E-001
   2.40000000E+002   9.94192568E-001   7.21483621E-001   9.94192740E-001
   2.45000000E+002   9.94713455E-001   7.21484159E-001   9.94713610E-001
