# ./jetvheto -in n3lo-fixed-order/H125-LHC13-R04-mb-475-mt-1725-xmur050-xmuf050-log.fxd -xQ 0.0625 -out benchmarks-n3lo-smallR/H125-LHC13-R04-mb-475-mt-1725-xmur050-xmuf050-xQ0625-N3LO+NNLLa.R0-2.0.res -scheme a -order 2 -ptmax 500.01 -fixed_order 3 -small-r -loop-mass t+b -R0 2.0
# process = H    
# collider = pp   
# rts =  13000.000
# M   =    125.000
# muR =     62.500
# muF =     62.500
# Q   =      7.812
# p   =      5.000
# include_c1_squared =   F
# loop_mass  = t+b 
# alphas(MZ) =    0.11800
# alphas(M) =    0.11264
# alphas(muR) =    0.12516
# Rjet =      0.400
# order = NNLL
# pdf name and set = PDF4LHC15_nnlo_mc.LHgrid,    0
# matching scheme = a
# total cross sections [nb] at LO, NLOdiff, NNLOdiff, N3LOdiff =     0.014147    0.020254    0.008998    0.001413
#----------------------------------------------------------------------
# the lines that follow give the jet-veto efficiencies as a function of pt
#         pt            matched eff      resummed eff     fixed-order eff
   2.00000000E+001   4.41039098E-001   1.67440555E-001   4.41074844E-001
   2.50000000E+001   5.26274018E-001   1.67795804E-001   5.26291803E-001
   3.00000000E+001   5.99577326E-001   1.67899853E-001   5.99588615E-001
   3.50000000E+001   6.58097412E-001   1.67937472E-001   6.58104134E-001
   4.00000000E+001   7.03695354E-001   1.67953259E-001   7.03699261E-001
   4.50000000E+001   7.43906041E-001   1.67960659E-001   7.43908515E-001
   5.00000000E+001   7.76266155E-001   1.67964438E-001   7.76267730E-001
   5.50000000E+001   8.04437296E-001   1.67966504E-001   8.04438345E-001
   6.00000000E+001   8.27667138E-001   1.67967697E-001   8.27667847E-001
   6.50000000E+001   8.49072999E-001   1.67968420E-001   8.49073502E-001
   7.00000000E+001   8.65766694E-001   1.67968874E-001   8.65767048E-001
   7.50000000E+001   8.80673835E-001   1.67969170E-001   8.80674091E-001
   8.00000000E+001   8.94137849E-001   1.67969368E-001   8.94138038E-001
   8.50000000E+001   9.06106692E-001   1.67969504E-001   9.06106835E-001
   9.00000000E+001   9.16610899E-001   1.67969599E-001   9.16611008E-001
   9.50000000E+001   9.25078393E-001   1.67969667E-001   9.25078477E-001
   1.00000000E+002   9.33101721E-001   1.67969717E-001   9.33101787E-001
   1.05000000E+002   9.39585552E-001   1.67969754E-001   9.39585604E-001
   1.10000000E+002   9.45495149E-001   1.67969782E-001   9.45495190E-001
   1.15000000E+002   9.51094072E-001   1.67969803E-001   9.51094105E-001
   1.20000000E+002   9.56107651E-001   1.67969819E-001   9.56107678E-001
   1.25000000E+002   9.60296256E-001   1.67969832E-001   9.60296277E-001
   1.30000000E+002   9.63938005E-001   1.67969841E-001   9.63938023E-001
   1.35000000E+002   9.67546877E-001   1.67969849E-001   9.67546891E-001
   1.40000000E+002   9.70830238E-001   1.67969856E-001   9.70830250E-001
   1.45000000E+002   9.73664634E-001   1.67969861E-001   9.73664645E-001
   1.50000000E+002   9.75887811E-001   1.67969865E-001   9.75887820E-001
   1.55000000E+002   9.78411522E-001   1.67969868E-001   9.78411529E-001
   1.60000000E+002   9.80668088E-001   1.67969871E-001   9.80668095E-001
   1.65000000E+002   9.82074139E-001   1.67969873E-001   9.82074144E-001
   1.70000000E+002   9.83850036E-001   1.67969875E-001   9.83850040E-001
   1.75000000E+002   9.85520631E-001   1.67969877E-001   9.85520635E-001
   1.80000000E+002   9.86797342E-001   1.67969878E-001   9.86797346E-001
   1.85000000E+002   9.87975389E-001   1.67969879E-001   9.87975392E-001
   1.90000000E+002   9.89172335E-001   1.67969880E-001   9.89172337E-001
   1.95000000E+002   9.90274810E-001   1.67969881E-001   9.90274812E-001
   2.00000000E+002   9.91246361E-001   1.67969882E-001   9.91246363E-001
   2.05000000E+002   9.92022415E-001   1.67969883E-001   9.92022417E-001
   2.10000000E+002   9.92795406E-001   1.67969883E-001   9.92795408E-001
   2.15000000E+002   9.93402919E-001   1.67969884E-001   9.93402921E-001
   2.20000000E+002   9.94259309E-001   1.67969884E-001   9.94259310E-001
   2.25000000E+002   9.94706378E-001   1.67969884E-001   9.94706379E-001
   2.30000000E+002   9.95249342E-001   1.67969885E-001   9.95249343E-001
   2.35000000E+002   9.95654000E-001   1.67969885E-001   9.95654001E-001
   2.40000000E+002   9.96087981E-001   1.67969885E-001   9.96087982E-001
   2.45000000E+002   9.96585701E-001   1.67969885E-001   9.96585702E-001
