# ./jetvheto -in n3lo-fixed-order/H125-LHC13-R04-mb-475-mt-1725-xmur050-xmuf050-log.fxd -xQ 0.5 -out benchmarks-n3lo-smallR/H125-LHC13-R04-mb-475-mt-1725-xmur050-xmuf050-xQ050-NNLO+NNLLa.R0-2.0.res -scheme a -order 2 -ptmax 500.01 -fixed_order 2 -small-r -loop-mass t+b -R0 2.0
# process = H    
# collider = pp   
# rts =  13000.000
# M   =    125.000
# muR =     62.500
# muF =     62.500
# Q   =     62.500
# p   =      5.000
# include_c1_squared =   F
# loop_mass  = t+b 
# alphas(MZ) =    0.11800
# alphas(M) =    0.11264
# alphas(muR) =    0.12516
# Rjet =      0.400
# order = NNLL
# pdf name and set = PDF4LHC15_nnlo_mc.LHgrid,    0
# matching scheme = a
# total cross sections [nb] at LO, NLOdiff, NNLOdiff, N3LOdiff =     0.014147    0.020254    0.008998    0.001413
#----------------------------------------------------------------------
# the lines that follow give the jet-veto efficiencies as a function of pt
#         pt            matched eff      resummed eff     fixed-order eff
   2.00000000E+001   4.72831833E-001   4.91401473E-001   4.51585809E-001
   2.50000000E+001   5.57111833E-001   5.62160197E-001   5.37845647E-001
   3.00000000E+001   6.23804461E-001   6.11923617E-001   6.05618957E-001
   3.50000000E+001   6.77117427E-001   6.46505316E-001   6.60103954E-001
   4.00000000E+001   7.20072643E-001   6.70078425E-001   7.04623301E-001
   4.50000000E+001   7.55378830E-001   6.85702035E-001   7.41826274E-001
   5.00000000E+001   7.84636170E-001   6.95706449E-001   7.73153273E-001
   5.50000000E+001   8.09141370E-001   7.01883483E-001   7.99700298E-001
   6.00000000E+001   8.30036271E-001   7.05573344E-001   8.22453602E-001
   6.50000000E+001   8.48051763E-001   7.07721385E-001   8.42063586E-001
   7.00000000E+001   8.63859004E-001   7.08953296E-001   8.59177351E-001
   7.50000000E+001   8.77630006E-001   7.09657498E-001   8.73986041E-001
   8.00000000E+001   8.89867518E-001   7.10062991E-001   8.87031290E-001
   8.50000000E+001   9.00776147E-001   7.10300073E-001   8.98561694E-001
   9.00000000E+001   9.10413757E-001   7.10441763E-001   9.08676257E-001
   9.50000000E+001   9.18959227E-001   7.10528654E-001   9.17587048E-001
   1.00000000E+002   9.26651064E-001   7.10583437E-001   9.25559652E-001
   1.05000000E+002   9.33516529E-001   7.10618969E-001   9.32641906E-001
   1.10000000E+002   9.39645379E-001   7.10642667E-001   9.38939368E-001
   1.15000000E+002   9.45185753E-001   7.10658900E-001   9.44611611E-001
   1.20000000E+002   9.50156152E-001   7.10670304E-001   9.49685968E-001
   1.25000000E+002   9.54684404E-001   7.10678502E-001   9.54296709E-001
   1.30000000E+002   9.58717063E-001   7.10684523E-001   9.58395322E-001
   1.35000000E+002   9.62373639E-001   7.10689029E-001   9.62105002E-001
   1.40000000E+002   9.65708005E-001   7.10692460E-001   9.65482383E-001
   1.45000000E+002   9.68714950E-001   7.10695114E-001   9.68524408E-001
   1.50000000E+002   9.71472141E-001   7.10697195E-001   9.71310382E-001
   1.55000000E+002   9.73969723E-001   7.10698847E-001   9.73831721E-001
   1.60000000E+002   9.76237278E-001   7.10700173E-001   9.76118993E-001
   1.65000000E+002   9.78287724E-001   7.10701248E-001   9.78185892E-001
   1.70000000E+002   9.80158086E-001   7.10702128E-001   9.80070053E-001
   1.75000000E+002   9.81891322E-001   7.10702853E-001   9.81814911E-001
   1.80000000E+002   9.83441377E-001   7.10703456E-001   9.83374805E-001
   1.85000000E+002   9.84882720E-001   7.10703960E-001   9.84824510E-001
   1.90000000E+002   9.86196206E-001   7.10704384E-001   9.86145135E-001
   1.95000000E+002   9.87392304E-001   7.10704743E-001   9.87347351E-001
   2.00000000E+002   9.88483254E-001   7.10705049E-001   9.88443563E-001
   2.05000000E+002   9.89490547E-001   7.10705310E-001   9.89455399E-001
   2.10000000E+002   9.90389930E-001   7.10705535E-001   9.90358717E-001
   2.15000000E+002   9.91244744E-001   7.10705728E-001   9.91216951E-001
   2.20000000E+002   9.92029295E-001   7.10705896E-001   9.92004483E-001
   2.25000000E+002   9.92719142E-001   7.10706042E-001   9.92696938E-001
   2.30000000E+002   9.93393553E-001   7.10706169E-001   9.93373635E-001
   2.35000000E+002   9.93981591E-001   7.10706280E-001   9.93963683E-001
   2.40000000E+002   9.94532955E-001   7.10706378E-001   9.94516819E-001
   2.45000000E+002   9.95030212E-001   7.10706464E-001   9.95015643E-001
