# ./jetvheto -in n3lo-fixed-order/H125-LHC13-R04-mb-475-mt-1725-xmur025-xmuf025-log.fxd -xQ 0.5 -out benchmarks-n3lo-smallR/H125-LHC13-R04-mb-475-mt-1725-xmur025-xmuf025-xQ050-NNLO+NNLLa.R0-0.5.res -scheme a -order 2 -ptmax 500.01 -fixed_order 2 -small-r -loop-mass t+b -R0 0.5
# process = H    
# collider = pp   
# rts =  13000.000
# M   =    125.000
# muR =     31.250
# muF =     31.250
# Q   =     62.500
# p   =      5.000
# include_c1_squared =   F
# loop_mass  = t+b 
# alphas(MZ) =    0.11800
# alphas(M) =    0.11264
# alphas(muR) =    0.14091
# Rjet =      0.400
# order = NNLL
# pdf name and set = PDF4LHC15_nnlo_mc.LHgrid,    0
# matching scheme = a
# total cross sections [nb] at LO, NLOdiff, NNLOdiff, N3LOdiff =     0.016156    0.025248    0.006043   -0.002471
#----------------------------------------------------------------------
# the lines that follow give the jet-veto efficiencies as a function of pt
#         pt            matched eff      resummed eff     fixed-order eff
   2.00000000E+001   4.51747852E-001   4.57087050E-001   4.14362726E-001
   2.50000000E+001   5.37085340E-001   5.24896261E-001   5.03382423E-001
   3.00000000E+001   6.04850280E-001   5.72127879E-001   5.74877333E-001
   3.50000000E+001   6.59772010E-001   6.04596472E-001   6.33647351E-001
   4.00000000E+001   7.04548119E-001   6.26485849E-001   6.82274657E-001
   4.50000000E+001   7.41624866E-001   6.40816907E-001   7.23088176E-001
   5.00000000E+001   7.72635076E-001   6.49857245E-001   7.57541843E-001
   5.50000000E+001   7.98865755E-001   6.55334530E-001   7.86825388E-001
   6.00000000E+001   8.21449111E-001   6.58525781E-001   8.11989633E-001
   6.50000000E+001   8.41077154E-001   6.60323522E-001   8.33719045E-001
   7.00000000E+001   8.58412823E-001   6.61310747E-001   8.52717321E-001
   7.50000000E+001   8.73409116E-001   6.61843792E-001   8.69004953E-001
   8.00000000E+001   8.86885187E-001   6.62128922E-001   8.83470860E-001
   8.50000000E+001   8.98870993E-001   6.62280635E-001   8.96210714E-001
   9.00000000E+001   9.09487044E-001   6.62361003E-001   9.07401203E-001
   9.50000000E+001   9.18811096E-001   6.62403258E-001   9.17163878E-001
   1.00000000E+002   9.27162705E-001   6.62425125E-001   9.25851957E-001
   1.05000000E+002   9.34691930E-001   6.62436073E-001   9.33640696E-001
   1.10000000E+002   9.41384484E-001   6.62441188E-001   9.40535003E-001
   1.15000000E+002   9.47433855E-001   6.62443212E-001   9.46742262E-001
   1.20000000E+002   9.52872824E-001   6.62443633E-001   9.52305676E-001
   1.25000000E+002   9.57689780E-001   6.62443256E-001   9.57221507E-001
   1.30000000E+002   9.62066568E-001   6.62442518E-001   9.61677464E-001
   1.35000000E+002   9.66001070E-001   6.62441651E-001   9.65675792E-001
   1.40000000E+002   9.69521501E-001   6.62440775E-001   9.69247988E-001
   1.45000000E+002   9.72773539E-001   6.62439948E-001   9.72542277E-001
   1.50000000E+002   9.75668464E-001   6.62439198E-001   9.75471914E-001
   1.55000000E+002   9.78288934E-001   6.62438530E-001   9.78121067E-001
   1.60000000E+002   9.80683933E-001   6.62437944E-001   9.80539901E-001
   1.65000000E+002   9.82846226E-001   6.62437433E-001   9.82722112E-001
   1.70000000E+002   9.84782123E-001   6.62436990E-001   9.84674723E-001
   1.75000000E+002   9.86546403E-001   6.62436606E-001   9.86453107E-001
   1.80000000E+002   9.88134021E-001   6.62436274E-001   9.88052673E-001
   1.85000000E+002   9.89557011E-001   6.62435987E-001   9.89485827E-001
   1.90000000E+002   9.90881067E-001   6.62435739E-001   9.90818567E-001
   1.95000000E+002   9.92089954E-001   6.62435523E-001   9.92034904E-001
   2.00000000E+002   9.93171570E-001   6.62435336E-001   9.93122932E-001
   2.05000000E+002   9.94173071E-001   6.62435174E-001   9.94129974E-001
   2.10000000E+002   9.95086298E-001   6.62435032E-001   9.95048004E-001
   2.15000000E+002   9.95873902E-001   6.62434908E-001   9.95839785E-001
   2.20000000E+002   9.96623373E-001   6.62434799E-001   9.96592901E-001
   2.25000000E+002   9.97298425E-001   6.62434704E-001   9.97271142E-001
   2.30000000E+002   9.97892461E-001   6.62434620E-001   9.97867975E-001
   2.35000000E+002   9.98446397E-001   6.62434546E-001   9.98424373E-001
   2.40000000E+002   9.98930631E-001   6.62434481E-001   9.98910778E-001
   2.45000000E+002   9.99368566E-001   6.62434423E-001   9.99350634E-001
