# ./jetvheto -in n3lo-fixed-order/H125-LHC13-R04-mb-475-mt-1725-xmur050-xmuf050-log.fxd -xQ 0.75 -out benchmarks-n3lo-smallR/H125-LHC13-R04-mb-475-mt-1725-xmur050-xmuf050-xQ075-N3LO+NNLLb.R0-1.0.res -scheme b -order 2 -ptmax 500.01 -fixed_order 3 -small-r -loop-mass t+b -R0 1.0
# process = H    
# collider = pp   
# rts =  13000.000
# M   =    125.000
# muR =     62.500
# muF =     62.500
# Q   =     93.750
# p   =      5.000
# include_c1_squared =   F
# loop_mass  = t+b 
# alphas(MZ) =    0.11800
# alphas(M) =    0.11264
# alphas(muR) =    0.12516
# Rjet =      0.400
# order = NNLL
# pdf name and set = PDF4LHC15_nnlo_mc.LHgrid,    0
# matching scheme = b
# total cross sections [nb] at LO, NLOdiff, NNLOdiff, N3LOdiff =     0.014147    0.020254    0.008998    0.001413
#----------------------------------------------------------------------
# the lines that follow give the jet-veto efficiencies as a function of pt
#         pt            matched eff      resummed eff     fixed-order eff
   2.00000000E+001   4.57703542E-001   5.24458614E-001   4.22880362E-001
   2.50000000E+001   5.42659888E-001   6.00122234E-001   5.10871357E-001
   3.00000000E+001   6.14717231E-001   6.52957272E-001   5.86554172E-001
   3.50000000E+001   6.72176072E-001   6.89560807E-001   6.46974526E-001
   4.00000000E+001   7.16567382E-001   7.14480937E-001   6.94053894E-001
   4.50000000E+001   7.55493304E-001   7.30907950E-001   7.35572065E-001
   5.00000000E+001   7.86467958E-001   7.41122896E-001   7.68984657E-001
   5.50000000E+001   8.13315030E-001   7.46806284E-001   7.98072300E-001
   6.00000000E+001   8.35216952E-001   7.49215400E-001   8.22057983E-001
   6.50000000E+001   8.55494502E-001   7.49321004E-001   8.44160448E-001
   7.00000000E+001   8.71020326E-001   7.47883363E-001   8.61397413E-001
   7.50000000E+001   8.84917509E-001   7.45496082E-001   8.76789719E-001
   8.00000000E+001   8.97531692E-001   7.42614207E-001   8.90691953E-001
   8.50000000E+001   9.08782624E-001   7.39571450E-001   9.03050366E-001
   9.00000000E+001   9.18684965E-001   7.36597084E-001   9.13896477E-001
   9.50000000E+001   9.26611402E-001   7.33832795E-001   9.22639584E-001
   1.00000000E+002   9.34225155E-001   7.31353873E-001   9.30924075E-001
   1.05000000E+002   9.40351735E-001   7.29187371E-001   9.37618957E-001
   1.10000000E+002   9.45988722E-001   7.27328713E-001   9.43720915E-001
   1.15000000E+002   9.51391123E-001   7.25754908E-001   9.49502090E-001
   1.20000000E+002   9.56256641E-001   7.24434111E-001   9.54678868E-001
   1.25000000E+002   9.60322803E-001   7.23331835E-001   9.59003817E-001
   1.30000000E+002   9.63869995E-001   7.22414860E-001   9.62764111E-001
   1.35000000E+002   9.67423251E-001   7.21653026E-001   9.66490458E-001
   1.40000000E+002   9.70670514E-001   7.21019983E-001   9.69880698E-001
   1.45000000E+002   9.73478173E-001   7.20493313E-001   9.72807360E-001
   1.50000000E+002   9.75673674E-001   7.20054263E-001   9.75102905E-001
   1.55000000E+002   9.78197971E-001   7.19687320E-001   9.77708768E-001
   1.60000000E+002   9.80459587E-001   7.19379738E-001   9.80038790E-001
   1.65000000E+002   9.81852462E-001   7.19121088E-001   9.81490611E-001
   1.70000000E+002   9.83637704E-001   7.18902853E-001   9.83324317E-001
   1.75000000E+002   9.85321732E-001   7.18718081E-001   9.85049293E-001
   1.80000000E+002   9.86604863E-001   7.18561098E-001   9.86367565E-001
   1.85000000E+002   9.87791351E-001   7.18427259E-001   9.87583960E-001
   1.90000000E+002   9.89001866E-001   7.18312760E-001   9.88819869E-001
   1.95000000E+002   9.90118444E-001   7.18214475E-001   9.89958231E-001
   2.00000000E+002   9.91102832E-001   7.18129828E-001   9.90961409E-001
   2.05000000E+002   9.91887832E-001   7.18056692E-001   9.91762726E-001
   2.10000000E+002   9.92671913E-001   7.17993303E-001   9.92560879E-001
   2.15000000E+002   9.93286903E-001   7.17938195E-001   9.93188169E-001
   2.20000000E+002   9.94160629E-001   7.17890145E-001   9.94072436E-001
   2.25000000E+002   9.94612858E-001   7.17848129E-001   9.94534058E-001
   2.30000000E+002   9.95165332E-001   7.17811288E-001   9.95094697E-001
   2.35000000E+002   9.95575954E-001   7.17778898E-001   9.95512527E-001
   2.40000000E+002   9.96017737E-001   7.17750349E-001   9.95960635E-001
   2.45000000E+002   9.96526109E-001   7.17725122E-001   9.96474558E-001
