# ./jetvheto -in n3lo-fixed-order/H125-LHC13-R04-mb-0-mt-1725-xmur050-xmuf050-log.fxd -xQ 1.0 -out benchmarks-n3lo-smallR/H125-LHC13-R04-mb-0-mt-1725-xmur050-xmuf050-xQ100-NNLO+NNLLa.res -scheme a -order 2 -ptmax 500.01 -fixed_order 2 -loop-mass t
# process = H    
# collider = pp   
# rts =  13000.000
# M   =    125.000
# muR =     62.500
# muF =     62.500
# Q   =    125.000
# p   =      5.000
# include_c1_squared =   F
# loop_mass  = t   
# alphas(MZ) =    0.11800
# alphas(M) =    0.11264
# alphas(muR) =    0.12516
# Rjet =      0.400
# order = NNLL
# pdf name and set = PDF4LHC15_nnlo_mc.LHgrid,    0
# matching scheme = a
# total cross sections [nb] at LO, NLOdiff, NNLOdiff, N3LOdiff =     0.015885    0.020561    0.008998    0.001413
#----------------------------------------------------------------------
# the lines that follow give the jet-veto efficiencies as a function of pt
#         pt            matched eff      resummed eff     fixed-order eff
   2.00000000E+001   5.32185081E-001   5.95466324E-001   4.69057413E-001
   2.50000000E+001   6.22766089E-001   6.80488616E-001   5.55288671E-001
   3.00000000E+001   6.92453498E-001   7.39178161E-001   6.22338019E-001
   3.50000000E+001   7.46912602E-001   7.79289588E-001   6.75875821E-001
   4.00000000E+001   7.89904806E-001   8.06190703E-001   7.19396295E-001
   4.50000000E+001   8.24180547E-001   8.23536914E-001   7.55344248E-001
   5.00000000E+001   8.52010281E-001   8.33887441E-001   7.85683467E-001
   5.50000000E+001   8.74161991E-001   8.39084558E-001   8.11020538E-001
   6.00000000E+001   8.92286596E-001   8.40471084E-001   8.32757246E-001
   6.50000000E+001   9.07134834E-001   8.39053410E-001   8.51501964E-001
   7.00000000E+001   9.19312291E-001   8.35603257E-001   8.67734675E-001
   7.50000000E+001   9.29212238E-001   8.30715335E-001   8.81763053E-001
   8.00000000E+001   9.37433906E-001   8.24858702E-001   8.94087077E-001
   8.50000000E+001   9.44280413E-001   8.18409962E-001   9.04946611E-001
   9.00000000E+001   9.49981313E-001   8.11672269E-001   9.14517318E-001
   9.50000000E+001   9.54678279E-001   8.04887156E-001   9.22903074E-001
   1.00000000E+002   9.58757172E-001   7.98245218E-001   9.30440166E-001
   1.05000000E+002   9.62137438E-001   7.91890570E-001   9.37035250E-001
   1.10000000E+002   9.65092041E-001   7.85926025E-001   9.42936658E-001
   1.15000000E+002   9.67714030E-001   7.80418625E-001   9.48232561E-001
   1.20000000E+002   9.70076393E-001   7.75403308E-001   9.52998144E-001
   1.25000000E+002   9.72263365E-001   7.70889684E-001   9.57326460E-001
   1.30000000E+002   9.74188267E-001   7.66867839E-001   9.61148649E-001
   1.35000000E+002   9.75973744E-001   7.63313624E-001   9.64601780E-001
   1.40000000E+002   9.77664162E-001   7.60193559E-001   9.67750932E-001
   1.45000000E+002   9.79254646E-001   7.57468948E-001   9.70612637E-001
   1.50000000E+002   9.80770872E-001   7.55099109E-001   9.73232562E-001
   1.55000000E+002   9.82168304E-001   7.53043724E-001   9.75586996E-001
   1.60000000E+002   9.83480226E-001   7.51264431E-001   9.77727247E-001
   1.65000000E+002   9.84697167E-001   7.49725735E-001   9.79660891E-001
   1.70000000E+002   9.85856233E-001   7.48395598E-001   9.81439603E-001
   1.75000000E+002   9.86934225E-001   7.47245547E-001   9.83053670E-001
   1.80000000E+002   9.87923651E-001   7.46250531E-001   9.84507522E-001
   1.85000000E+002   9.88867945E-001   7.45388748E-001   9.85854277E-001
   1.90000000E+002   9.89749749E-001   7.44641350E-001   9.87085413E-001
   1.95000000E+002   9.90568856E-001   7.43992128E-001   9.88208314E-001
   2.00000000E+002   9.91331910E-001   7.43427192E-001   9.89235973E-001
   2.05000000E+002   9.92042823E-001   7.42934666E-001   9.90177759E-001
   2.10000000E+002   9.92684386E-001   7.42504415E-001   9.91021276E-001
   2.15000000E+002   9.93305906E-001   7.42127790E-001   9.91819641E-001
   2.20000000E+002   9.93880059E-001   7.41797416E-001   9.92549062E-001
   2.25000000E+002   9.94391067E-001   7.41506999E-001   9.93196753E-001
   2.30000000E+002   9.94907042E-001   7.41251163E-001   9.93833097E-001
   2.35000000E+002   9.95347875E-001   7.41025314E-001   9.94380362E-001
   2.40000000E+002   9.95771218E-001   7.40825518E-001   9.94897900E-001
   2.45000000E+002   9.96160968E-001   7.40648405E-001   9.95371206E-001
