# ./jetvheto -in n3lo-fixed-order/H125-LHC13-R04-heft-xmur050-xmuf025-log.fxd -xQ 0.50 -out benchmarks-n3lo-smallR/H125-LHC13-R04-heft-xmur050-xmuf025-xQ050-N3LO+NNLLa.R0-1.0.res -scheme a -order 2 -ptmax 500.01 -fixed_order 3 -small-r -R0 1.0
# process = H    
# collider = pp   
# rts =  13000.000
# M   =    125.000
# muR =     62.500
# muF =     31.250
# Q   =     62.500
# p   =      5.000
# include_c1_squared =   F
# loop_mass  = none
# alphas(MZ) =    0.11800
# alphas(M) =    0.11264
# alphas(muR) =    0.12516
# Rjet =      0.400
# order = NNLL
# pdf name and set = PDF4LHC15_nnlo_mc.LHgrid,    0
# matching scheme = a
# total cross sections [nb] at LO, NLOdiff, NNLOdiff, N3LOdiff =     0.013759    0.019772    0.009723    0.001827
#----------------------------------------------------------------------
# the lines that follow give the jet-veto efficiencies as a function of pt
#         pt            matched eff      resummed eff     fixed-order eff
   2.00000000E+001   4.49991383E-001   4.82662081E-001   4.50421662E-001
   2.50000000E+001   5.40096896E-001   5.63041385E-001   5.38581774E-001
   3.00000000E+001   6.11081826E-001   6.20600787E-001   6.07931788E-001
   3.50000000E+001   6.67688988E-001   6.61299888E-001   6.63605119E-001
   4.00000000E+001   7.13867110E-001   6.89609683E-001   7.09554932E-001
   4.50000000E+001   7.52325702E-001   7.08847042E-001   7.48231785E-001
   5.00000000E+001   7.83956152E-001   7.21557949E-001   7.80304570E-001
   5.50000000E+001   8.11430015E-001   7.29726444E-001   8.08347860E-001
   6.00000000E+001   8.34120514E-001   7.34857594E-001   8.31584643E-001
   6.50000000E+001   8.52213356E-001   7.38037233E-001   8.50162676E-001
   7.00000000E+001   8.69140279E-001   7.40003274E-001   8.67519966E-001
   7.50000000E+001   8.83616405E-001   7.41229704E-001   8.82345556E-001
   8.00000000E+001   8.95655731E-001   7.42008391E-001   8.94657674E-001
   8.50000000E+001   9.06758562E-001   7.42514262E-001   9.05975513E-001
   9.00000000E+001   9.16473821E-001   7.42851334E-001   9.15856876E-001
   9.50000000E+001   9.23748152E-001   7.43081741E-001   9.23257619E-001
   1.00000000E+002   9.31735019E-001   7.43243114E-001   9.31344395E-001
   1.05000000E+002   9.37864277E-001   7.43358698E-001   9.37550109E-001
   1.10000000E+002   9.44177608E-001   7.43443177E-001   9.43923805E-001
   1.15000000E+002   9.49573372E-001   7.43506047E-001   9.49366732E-001
   1.20000000E+002   9.53833801E-001   7.43553595E-001   9.53664191E-001
   1.25000000E+002   9.57515404E-001   7.43590074E-001   9.57375307E-001
   1.30000000E+002   9.61338020E-001   7.43618422E-001   9.61221701E-001
   1.35000000E+002   9.64515207E-001   7.43640705E-001   9.64417982E-001
   1.40000000E+002   9.67475092E-001   7.43658403E-001   9.67393410E-001
   1.45000000E+002   9.70208074E-001   7.43672592E-001   9.70139075E-001
   1.50000000E+002   9.72536036E-001   7.43684067E-001   9.72477447E-001
   1.55000000E+002   9.74685967E-001   7.43693418E-001   9.74635981E-001
   1.60000000E+002   9.76945132E-001   7.43701095E-001   9.76902319E-001
   1.65000000E+002   9.78628362E-001   7.43707439E-001   9.78591495E-001
   1.70000000E+002   9.80036326E-001   7.43712715E-001   9.80004443E-001
   1.75000000E+002   9.81741869E-001   7.43717127E-001   9.81714216E-001
   1.80000000E+002   9.82903977E-001   7.43720837E-001   9.82879880E-001
   1.85000000E+002   9.84223098E-001   7.43723972E-001   9.84202042E-001
   1.90000000E+002   9.85282752E-001   7.43726634E-001   9.85264281E-001
   1.95000000E+002   9.86414237E-001   7.43728905E-001   9.86397989E-001
   2.00000000E+002   9.87232321E-001   7.43730850E-001   9.87217976E-001
   2.05000000E+002   9.88051756E-001   7.43732522E-001   9.88039056E-001
   2.10000000E+002   9.88807708E-001   7.43733966E-001   9.88796432E-001
   2.15000000E+002   9.89658620E-001   7.43735216E-001   9.89648586E-001
   2.20000000E+002   9.90274452E-001   7.43736304E-001   9.90265497E-001
   2.25000000E+002   9.90982914E-001   7.43737252E-001   9.90974904E-001
   2.30000000E+002   9.91508813E-001   7.43738081E-001   9.91501630E-001
   2.35000000E+002   9.91920038E-001   7.43738809E-001   9.91913580E-001
   2.40000000E+002   9.92484549E-001   7.43739449E-001   9.92478733E-001
   2.45000000E+002   9.92969684E-001   7.43740014E-001   9.92964436E-001
