# ./jetvheto -in n3lo-fixed-order/H125-LHC13-R04-mb-0-mt-1725-xmur025-xmuf050-log.fxd -xQ 0.5 -out benchmarks-n3lo-smallR/H125-LHC13-R04-mb-0-mt-1725-xmur025-xmuf050-xQ050-N3LO+NNLLb.R0-2.0.res -scheme b -order 2 -ptmax 500.01 -small-r -fixed_order 3 -loop-mass t -R0 2.0
# process = H    
# collider = pp   
# rts =  13000.000
# M   =    125.000
# muR =     31.250
# muF =     62.500
# Q   =     62.500
# p   =      5.000
# include_c1_squared =   F
# loop_mass  = t   
# alphas(MZ) =    0.11800
# alphas(M) =    0.11264
# alphas(muR) =    0.14091
# Rjet =      0.400
# order = NNLL
# pdf name and set = PDF4LHC15_nnlo_mc.LHgrid,    0
# matching scheme = b
# total cross sections [nb] at LO, NLOdiff, NNLOdiff, N3LOdiff =     0.019855    0.024744    0.005009   -0.002663
#----------------------------------------------------------------------
# the lines that follow give the jet-veto efficiencies as a function of pt
#         pt            matched eff      resummed eff     fixed-order eff
   2.00000000E+001   5.19284436E-001   5.23318352E-001   4.93187641E-001
   2.50000000E+001   5.94582188E-001   5.83738768E-001   5.71298503E-001
   3.00000000E+001   6.60760524E-001   6.25248141E-001   6.42050719E-001
   3.50000000E+001   7.12726642E-001   6.53331078E-001   6.97801461E-001
   4.00000000E+001   7.51314763E-001   6.71839797E-001   7.39461966E-001
   4.50000000E+001   7.86476439E-001   6.83564454E-001   7.77318921E-001
   5.00000000E+001   8.13818451E-001   6.90612012E-001   8.06799084E-001
   5.50000000E+001   8.37984111E-001   6.94583521E-001   8.32664363E-001
   6.00000000E+001   8.57379974E-001   6.96653791E-001   8.53369721E-001
   6.50000000E+001   8.76516275E-001   6.97627065E-001   8.73494087E-001
   7.00000000E+001   8.89980273E-001   6.98013208E-001   8.87699485E-001
   7.50000000E+001   9.02477294E-001   6.98109922E-001   9.00749041E-001
   8.00000000E+001   9.14082822E-001   6.98078106E-001   9.12762648E-001
   8.50000000E+001   9.24489583E-001   6.97998588E-001   9.23472829E-001
   9.00000000E+001   9.33709806E-001   6.97909200E-001   9.32919743E-001
   9.50000000E+001   9.40549536E-001   6.97825815E-001   9.39931688E-001
   1.00000000E+002   9.47459388E-001   6.97753824E-001   9.46971221E-001
   1.05000000E+002   9.52483662E-001   6.97693969E-001   9.52095357E-001
   1.10000000E+002   9.57233346E-001   6.97645141E-001   9.56921641E-001
   1.15000000E+002   9.61963204E-001   6.97605665E-001   9.61710870E-001
   1.20000000E+002   9.66238078E-001   6.97573855E-001   9.66032250E-001
   1.25000000E+002   9.69531053E-001   6.97548220E-001   9.69362092E-001
   1.30000000E+002   9.72313228E-001   6.97527514E-001   9.72173659E-001
   1.35000000E+002   9.75339152E-001   6.97510732E-001   9.75222987E-001
   1.40000000E+002   9.78102995E-001   6.97497074E-001   9.78005743E-001
   1.45000000E+002   9.80421991E-001   6.97485905E-001   9.80340157E-001
   1.50000000E+002   9.81937836E-001   6.97476728E-001   9.81868648E-001
   1.55000000E+002   9.84135646E-001   6.97469150E-001   9.84076781E-001
   1.60000000E+002   9.86082913E-001   6.97462862E-001   9.86032595E-001
   1.65000000E+002   9.86812071E-001   6.97457620E-001   9.86768936E-001
   1.70000000E+002   9.88299071E-001   6.97453228E-001   9.88261879E-001
   1.75000000E+002   9.89689410E-001   6.97449532E-001   9.89657204E-001
   1.80000000E+002   9.90593271E-001   6.97446408E-001   9.90565298E-001
   1.85000000E+002   9.91416659E-001   6.97443756E-001   9.91392271E-001
   1.90000000E+002   9.92373301E-001   6.97441496E-001   9.92351955E-001
   1.95000000E+002   9.93270264E-001   6.97439562E-001   9.93251519E-001
   2.00000000E+002   9.94037883E-001   6.97437902E-001   9.94021372E-001
   2.05000000E+002   9.94542944E-001   6.97436470E-001   9.94528357E-001
   2.10000000E+002   9.95130561E-001   6.97435232E-001   9.95117637E-001
   2.15000000E+002   9.95477746E-001   6.97434157E-001   9.95466264E-001
   2.20000000E+002   9.96282749E-001   6.97433222E-001   9.96272514E-001
   2.25000000E+002   9.96500639E-001   6.97432405E-001   9.96491502E-001
   2.30000000E+002   9.96885128E-001   6.97431689E-001   9.96876945E-001
   2.35000000E+002   9.97105187E-001   6.97431061E-001   9.97097844E-001
   2.40000000E+002   9.97405068E-001   6.97430508E-001   9.97398463E-001
   2.45000000E+002   9.97855431E-001   6.97430019E-001   9.97849475E-001
