# ./jetvheto -in n3lo-fixed-order/H125-LHC13-R04-heft-xmur200-xmuf100-log.fxd -xQ 0.50 -out benchmarks-n3lo-smallR/H125-LHC13-R04-heft-xmur200-xmuf100-xQ050-N3LO+NNLLa.R0-1.5.res -scheme a -order 2 -ptmax 500.01 -fixed_order 3 -small-r -R0 1.5
# process = H    
# collider = pp   
# rts =  13000.000
# M   =    125.000
# muR =    250.000
# muF =    125.000
# Q   =     62.500
# p   =      5.000
# include_c1_squared =   F
# loop_mass  = none
# alphas(MZ) =    0.11800
# alphas(M) =    0.11264
# alphas(muR) =    0.10244
# Rjet =      0.400
# order = NNLL
# pdf name and set = PDF4LHC15_nnlo_mc.LHgrid,    0
# matching scheme = a
# total cross sections [nb] at LO, NLOdiff, NNLOdiff, N3LOdiff =     0.010706    0.014429    0.010526    0.005600
#----------------------------------------------------------------------
# the lines that follow give the jet-veto efficiencies as a function of pt
#         pt            matched eff      resummed eff     fixed-order eff
   2.00000000E+001   4.68340322E-001   5.28254859E-001   4.83864536E-001
   2.50000000E+001   5.55455660E-001   6.12730332E-001   5.66336365E-001
   3.00000000E+001   6.26668215E-001   6.73080030E-001   6.33533594E-001
   3.50000000E+001   6.82377999E-001   7.15686764E-001   6.85744620E-001
   4.00000000E+001   7.27102214E-001   7.45238527E-001   7.28019410E-001
   4.50000000E+001   7.63072290E-001   7.65249107E-001   7.62485566E-001
   5.00000000E+001   7.92918588E-001   7.78418247E-001   7.91575294E-001
   5.50000000E+001   8.17935731E-001   7.86836018E-001   8.16332377E-001
   6.00000000E+001   8.38860354E-001   7.92087377E-001   8.37282852E-001
   6.50000000E+001   8.57202749E-001   7.95315022E-001   8.55795786E-001
   7.00000000E+001   8.72689810E-001   7.97292423E-001   8.71499263E-001
   7.50000000E+001   8.85721034E-001   7.98513791E-001   8.84743336E-001
   8.00000000E+001   8.97148173E-001   7.99281333E-001   8.96358926E-001
   8.50000000E+001   9.07386792E-001   7.99774909E-001   9.06755095E-001
   9.00000000E+001   9.16257852E-001   8.00100649E-001   9.15753146E-001
   9.50000000E+001   9.24292869E-001   8.00321383E-001   9.23889231E-001
   1.00000000E+002   9.31139661E-001   8.00474805E-001   9.30815615E-001
   1.05000000E+002   9.37283390E-001   8.00583975E-001   9.37021976E-001
   1.10000000E+002   9.42814956E-001   8.00663324E-001   9.42602908E-001
   1.15000000E+002   9.47787032E-001   8.00722105E-001   9.47613977E-001
   1.20000000E+002   9.52161799E-001   8.00766390E-001   9.52019706E-001
   1.25000000E+002   9.55998421E-001   8.00800259E-001   9.55881030E-001
   1.30000000E+002   9.59712850E-001   8.00826510E-001   9.59615306E-001
   1.35000000E+002   9.63026002E-001   8.00847101E-001   9.62944475E-001
   1.40000000E+002   9.65856747E-001   8.00863426E-001   9.65788234E-001
   1.45000000E+002   9.68546334E-001   8.00876496E-001   9.68488446E-001
   1.50000000E+002   9.70863461E-001   8.00887053E-001   9.70814307E-001
   1.55000000E+002   9.73229648E-001   8.00895648E-001   9.73187714E-001
   1.60000000E+002   9.75017418E-001   8.00902698E-001   9.74981471E-001
   1.65000000E+002   9.76827905E-001   8.00908520E-001   9.76796960E-001
   1.70000000E+002   9.78451936E-001   8.00913358E-001   9.78425185E-001
   1.75000000E+002   9.79997330E-001   8.00917402E-001   9.79974116E-001
   1.80000000E+002   9.81424997E-001   8.00920802E-001   9.81404775E-001
   1.85000000E+002   9.82715291E-001   8.00923674E-001   9.82697613E-001
   1.90000000E+002   9.83716448E-001   8.00926112E-001   9.83700941E-001
   1.95000000E+002   9.84872962E-001   8.00928190E-001   9.84859315E-001
   2.00000000E+002   9.85886283E-001   8.00929971E-001   9.85874236E-001
   2.05000000E+002   9.86780361E-001   8.00931501E-001   9.86769694E-001
   2.10000000E+002   9.87595940E-001   8.00932822E-001   9.87586470E-001
   2.15000000E+002   9.88441029E-001   8.00933966E-001   9.88432599E-001
   2.20000000E+002   9.89117260E-001   8.00934961E-001   9.89109735E-001
   2.25000000E+002   9.89798316E-001   8.00935828E-001   9.89791583E-001
   2.30000000E+002   9.90436781E-001   8.00936586E-001   9.90430742E-001
   2.35000000E+002   9.91039133E-001   8.00937252E-001   9.91033704E-001
   2.40000000E+002   9.91504448E-001   8.00937837E-001   9.91499557E-001
   2.45000000E+002   9.92043663E-001   8.00938353E-001   9.92039248E-001
