# ./jetvheto -in n3lo-fixed-order/H125-LHC13-R04-mb-0-mt-1725-xmur100-xmuf100-log.fxd -xQ 0.75 -out benchmarks-n3lo-smallR/H125-LHC13-R04-mb-0-mt-1725-xmur100-xmuf100-xQ075-N3LO+NNLLb.R0-0.5.res -scheme b -order 2 -ptmax 500.01 -small-r -fixed_order 3 -loop-mass t -R0 0.5
# process = H    
# collider = pp   
# rts =  13000.000
# M   =    125.000
# muR =    125.000
# muF =    125.000
# Q   =     93.750
# p   =      5.000
# include_c1_squared =   F
# loop_mass  = t   
# alphas(MZ) =    0.11800
# alphas(M) =    0.11264
# alphas(muR) =    0.11264
# Rjet =      0.400
# order = NNLL
# pdf name and set = PDF4LHC15_nnlo_mc.LHgrid,    0
# matching scheme = b
# total cross sections [nb] at LO, NLOdiff, NNLOdiff, N3LOdiff =     0.013801    0.017514    0.010146    0.003834
#----------------------------------------------------------------------
# the lines that follow give the jet-veto efficiencies as a function of pt
#         pt            matched eff      resummed eff     fixed-order eff
   2.00000000E+001   4.51773026E-001   5.45518834E-001   4.21593782E-001
   2.50000000E+001   5.37878832E-001   6.32691735E-001   5.13960990E-001
   3.00000000E+001   6.10565829E-001   6.94668232E-001   5.91015610E-001
   3.50000000E+001   6.67635752E-001   7.38389462E-001   6.50645918E-001
   4.00000000E+001   7.13932451E-001   7.68812194E-001   6.98836983E-001
   4.50000000E+001   7.51436136E-001   7.89473226E-001   7.37928057E-001
   5.00000000E+001   7.83123330E-001   8.02915557E-001   7.71030473E-001
   5.50000000E+001   8.10074438E-001   8.11025201E-001   7.99275639E-001
   6.00000000E+001   8.32640608E-001   8.15234071E-001   8.23059681E-001
   6.50000000E+001   8.52715272E-001   8.16654720E-001   8.44243758E-001
   7.00000000E+001   8.69487033E-001   8.16160623E-001   8.62070819E-001
   7.50000000E+001   8.83338661E-001   8.14434841E-001   8.76925464E-001
   8.00000000E+001   8.95472973E-001   8.12003835E-001   8.89967148E-001
   8.50000000E+001   9.06432839E-001   8.09258293E-001   9.01728487E-001
   9.00000000E+001   9.15735410E-001   8.06472614E-001   9.11747759E-001
   9.50000000E+001   9.24282198E-001   8.03823433E-001   9.20909613E-001
   1.00000000E+002   9.31413545E-001   8.01410989E-001   9.28579537E-001
   1.05000000E+002   9.37833284E-001   7.99279835E-001   9.35454626E-001
   1.10000000E+002   9.43625509E-001   7.97437261E-001   9.41628668E-001
   1.15000000E+002   9.48854383E-001   7.95868134E-001   9.47177133E-001
   1.20000000E+002   9.53406402E-001   7.94545539E-001   9.51996886E-001
   1.25000000E+002   9.57359835E-001   7.93438145E-001   9.56173934E-001
   1.30000000E+002   9.61359666E-001   7.92514550E-001   9.60356305E-001
   1.35000000E+002   9.64859272E-001   7.91745650E-001   9.64008440E-001
   1.40000000E+002   9.67814634E-001   7.91105696E-001   9.67091995E-001
   1.45000000E+002   9.70651462E-001   7.90572584E-001   9.70034899E-001
   1.50000000E+002   9.73054814E-001   7.90127695E-001   9.72527497E-001
   1.55000000E+002   9.75666292E-001   7.89755553E-001   9.75212455E-001
   1.60000000E+002   9.77431426E-001   7.89443393E-001   9.77041107E-001
   1.65000000E+002   9.79335653E-001   7.89180740E-001   9.78998050E-001
   1.70000000E+002   9.81002464E-001   7.88959020E-001   9.80709596E-001
   1.75000000E+002   9.82625736E-001   7.88771223E-001   9.82370623E-001
   1.80000000E+002   9.84118135E-001   7.88611614E-001   9.83895197E-001
   1.85000000E+002   9.85459928E-001   7.88475498E-001   9.85264523E-001
   1.90000000E+002   9.86396920E-001   7.88359023E-001   9.86225466E-001
   1.95000000E+002   9.87607753E-001   7.88259020E-001   9.87456496E-001
   2.00000000E+002   9.88634847E-001   7.88172879E-001   9.88501106E-001
   2.05000000E+002   9.89518490E-001   7.88098441E-001   9.89399966E-001
   2.10000000E+002   9.90309426E-001   7.88033915E-001   9.90204115E-001
   2.15000000E+002   9.91189626E-001   7.87977812E-001   9.91095719E-001
   2.20000000E+002   9.91825646E-001   7.87928889E-001   9.91741805E-001
   2.25000000E+002   9.92497387E-001   7.87886106E-001   9.92422310E-001
   2.30000000E+002   9.93123987E-001   7.87848590E-001   9.93056602E-001
   2.35000000E+002   9.93704115E-001   7.87815605E-001   9.93643503E-001
   2.40000000E+002   9.94096353E-001   7.87786529E-001   9.94041766E-001
   2.45000000E+002   9.94624710E-001   7.87760836E-001   9.94575393E-001
