# ./jetvheto -in n3lo-fixed-order/H125-LHC13-R04-mb-475-mt-1725-xmur200-xmuf100-log.fxd -xQ 0.25 -out benchmarks-n3lo-smallR/H125-LHC13-R04-mb-475-mt-1725-xmur200-xmuf100-xQ025-N3LO+NNLLb.R0-0.5.res -scheme b -order 2 -ptmax 500.01 -fixed_order 3 -small-r -loop-mass t+b -R0 0.5
# process = H    
# collider = pp   
# rts =  13000.000
# M   =    125.000
# muR =    250.000
# muF =    125.000
# Q   =     31.250
# p   =      5.000
# include_c1_squared =   F
# loop_mass  = t+b 
# alphas(MZ) =    0.11800
# alphas(M) =    0.11264
# alphas(muR) =    0.10244
# Rjet =      0.400
# order = NNLL
# pdf name and set = PDF4LHC15_nnlo_mc.LHgrid,    0
# matching scheme = b
# total cross sections [nb] at LO, NLOdiff, NNLOdiff, N3LOdiff =     0.010243    0.014468    0.010526    0.005600
#----------------------------------------------------------------------
# the lines that follow give the jet-veto efficiencies as a function of pt
#         pt            matched eff      resummed eff     fixed-order eff
   2.00000000E+001   4.12505030E-001   5.53893125E-001   3.89818525E-001
   2.50000000E+001   4.97150931E-001   6.27120371E-001   4.86093830E-001
   3.00000000E+001   5.69981306E-001   6.70132514E-001   5.64941031E-001
   3.50000000E+001   6.29099814E-001   6.93519170E-001   6.26766390E-001
   4.00000000E+001   6.77940565E-001   7.05797286E-001   6.76837357E-001
   4.50000000E+001   7.18443947E-001   7.12284006E-001   7.17902185E-001
   5.00000000E+001   7.52925550E-001   7.15816749E-001   7.52652485E-001
   5.50000000E+001   7.82395219E-001   7.17818173E-001   7.82254482E-001
   6.00000000E+001   8.07478061E-001   7.18998786E-001   8.07403331E-001
   6.50000000E+001   8.29664698E-001   7.19722099E-001   8.29625457E-001
   7.00000000E+001   8.48569183E-001   7.20180695E-001   8.48548309E-001
   7.50000000E+001   8.64488938E-001   7.20480483E-001   8.64477541E-001
   8.00000000E+001   8.78536276E-001   7.20681855E-001   8.78530213E-001
   8.50000000E+001   8.91079492E-001   7.20820427E-001   8.91076567E-001
   9.00000000E+001   9.01972378E-001   7.20917861E-001   9.01971116E-001
   9.50000000E+001   9.11808961E-001   7.20987703E-001   9.11808698E-001
   1.00000000E+002   9.20196087E-001   7.21038644E-001   9.20196285E-001
   1.05000000E+002   9.27739409E-001   7.21076384E-001   9.27739849E-001
   1.10000000E+002   9.34468438E-001   7.21104745E-001   9.34468996E-001
   1.15000000E+002   9.40533443E-001   7.21126336E-001   9.40534037E-001
   1.20000000E+002   9.45810787E-001   7.21142967E-001   9.45811365E-001
   1.25000000E+002   9.50506104E-001   7.21155918E-001   9.50506638E-001
   1.30000000E+002   9.55021872E-001   7.21166105E-001   9.55022375E-001
   1.35000000E+002   9.59039918E-001   7.21174192E-001   9.59040379E-001
   1.40000000E+002   9.62486017E-001   7.21180666E-001   9.62486427E-001
   1.45000000E+002   9.65749463E-001   7.21185891E-001   9.65749830E-001
   1.50000000E+002   9.68565790E-001   7.21190140E-001   9.68566114E-001
   1.55000000E+002   9.71448196E-001   7.21193617E-001   9.71448489E-001
   1.60000000E+002   9.73601159E-001   7.21196483E-001   9.73601413E-001
   1.65000000E+002   9.75791651E-001   7.21198858E-001   9.75791876E-001
   1.70000000E+002   9.77736801E-001   7.21200839E-001   9.77737000E-001
   1.75000000E+002   9.79584258E-001   7.21202498E-001   9.79584436E-001
   1.80000000E+002   9.81273239E-001   7.21203897E-001   9.81273397E-001
   1.85000000E+002   9.82806055E-001   7.21205080E-001   9.82806195E-001
   1.90000000E+002   9.83991955E-001   7.21206086E-001   9.83992078E-001
   1.95000000E+002   9.85350143E-001   7.21206946E-001   9.85350253E-001
   2.00000000E+002   9.86528526E-001   7.21207682E-001   9.86528625E-001
   2.05000000E+002   9.87567199E-001   7.21208316E-001   9.87567287E-001
   2.10000000E+002   9.88509432E-001   7.21208864E-001   9.88509511E-001
   2.15000000E+002   9.89474584E-001   7.21209339E-001   9.89474655E-001
   2.20000000E+002   9.90244620E-001   7.21209752E-001   9.90244684E-001
   2.25000000E+002   9.91014690E-001   7.21210112E-001   9.91014747E-001
   2.30000000E+002   9.91727928E-001   7.21210427E-001   9.91727980E-001
   2.35000000E+002   9.92388745E-001   7.21210704E-001   9.92388792E-001
   2.40000000E+002   9.92889076E-001   7.21210947E-001   9.92889118E-001
   2.45000000E+002   9.93480150E-001   7.21211162E-001   9.93480189E-001
