# ./jetvheto -in n3lo-fixed-order/H125-LHC13-R04-mb-475-mt-1725-xmur050-xmuf050-log.fxd -xQ 0.25 -out benchmarks-n3lo-smallR/H125-LHC13-R04-mb-475-mt-1725-xmur050-xmuf050-xQ025-N3LO+NNLLa.R0-1.0.res -scheme a -order 2 -ptmax 500.01 -fixed_order 3 -small-r -loop-mass t+b -R0 1.0
# process = H    
# collider = pp   
# rts =  13000.000
# M   =    125.000
# muR =     62.500
# muF =     62.500
# Q   =     31.250
# p   =      5.000
# include_c1_squared =   F
# loop_mass  = t+b 
# alphas(MZ) =    0.11800
# alphas(M) =    0.11264
# alphas(muR) =    0.12516
# Rjet =      0.400
# order = NNLL
# pdf name and set = PDF4LHC15_nnlo_mc.LHgrid,    0
# matching scheme = a
# total cross sections [nb] at LO, NLOdiff, NNLOdiff, N3LOdiff =     0.014147    0.020254    0.008998    0.001413
#----------------------------------------------------------------------
# the lines that follow give the jet-veto efficiencies as a function of pt
#         pt            matched eff      resummed eff     fixed-order eff
   2.00000000E+001   4.39161456E-001   4.71775487E-001   4.41074844E-001
   2.50000000E+001   5.25399356E-001   5.38037027E-001   5.26291803E-001
   3.00000000E+001   5.98871106E-001   5.77267682E-001   5.99588615E-001
   3.50000000E+001   6.57654928E-001   5.98718859E-001   6.58104134E-001
   4.00000000E+001   7.03471258E-001   6.10020352E-001   7.03699261E-001
   4.50000000E+001   7.43760786E-001   6.16003055E-001   7.43908515E-001
   5.00000000E+001   7.76180887E-001   6.19265043E-001   7.76267730E-001
   5.50000000E+001   8.04381244E-001   6.21114295E-001   8.04438345E-001
   6.00000000E+001   8.27631780E-001   6.22205567E-001   8.27667847E-001
   6.50000000E+001   8.49047029E-001   6.22874302E-001   8.49073502E-001
   7.00000000E+001   8.65750132E-001   6.23298356E-001   8.65767048E-001
   7.50000000E+001   8.80662461E-001   6.23575590E-001   8.80674091E-001
   8.00000000E+001   8.94129592E-001   6.23761823E-001   8.94138038E-001
   8.50000000E+001   9.06100537E-001   6.23889984E-001   9.06106835E-001
   9.00000000E+001   9.16606231E-001   6.23980099E-001   9.16611008E-001
   9.50000000E+001   9.25075035E-001   6.24044698E-001   9.25078477E-001
   1.00000000E+002   9.33099158E-001   6.24091814E-001   9.33101787E-001
   1.05000000E+002   9.39583682E-001   6.24126721E-001   9.39585604E-001
   1.10000000E+002   9.45493744E-001   6.24152954E-001   9.45495190E-001
   1.15000000E+002   9.51092969E-001   6.24172923E-001   9.51094105E-001
   1.20000000E+002   9.56106774E-001   6.24188307E-001   9.56107678E-001
   1.25000000E+002   9.60295579E-001   6.24200286E-001   9.60296277E-001
   1.30000000E+002   9.63937482E-001   6.24209708E-001   9.63938023E-001
   1.35000000E+002   9.67546451E-001   6.24217188E-001   9.67546891E-001
   1.40000000E+002   9.70829889E-001   6.24223177E-001   9.70830250E-001
   1.45000000E+002   9.73664351E-001   6.24228010E-001   9.73664645E-001
   1.50000000E+002   9.75887590E-001   6.24231940E-001   9.75887820E-001
   1.55000000E+002   9.78411334E-001   6.24235156E-001   9.78411529E-001
   1.60000000E+002   9.80667930E-001   6.24237807E-001   9.80668095E-001
   1.65000000E+002   9.82074016E-001   6.24240004E-001   9.82074144E-001
   1.70000000E+002   9.83849931E-001   6.24241836E-001   9.83850040E-001
   1.75000000E+002   9.85520542E-001   6.24243371E-001   9.85520635E-001
   1.80000000E+002   9.86797269E-001   6.24244664E-001   9.86797346E-001
   1.85000000E+002   9.87975328E-001   6.24245759E-001   9.87975392E-001
   1.90000000E+002   9.89172282E-001   6.24246690E-001   9.89172337E-001
   1.95000000E+002   9.90274764E-001   6.24247485E-001   9.90274812E-001
   2.00000000E+002   9.91246322E-001   6.24248166E-001   9.91246363E-001
   2.05000000E+002   9.92022382E-001   6.24248752E-001   9.92022417E-001
   2.10000000E+002   9.92795378E-001   6.24249259E-001   9.92795408E-001
   2.15000000E+002   9.93402895E-001   6.24249698E-001   9.93402921E-001
   2.20000000E+002   9.94259287E-001   6.24250080E-001   9.94259310E-001
   2.25000000E+002   9.94706359E-001   6.24250413E-001   9.94706379E-001
   2.30000000E+002   9.95249326E-001   6.24250705E-001   9.95249343E-001
   2.35000000E+002   9.95653986E-001   6.24250961E-001   9.95654001E-001
   2.40000000E+002   9.96087969E-001   6.24251186E-001   9.96087982E-001
   2.45000000E+002   9.96585690E-001   6.24251385E-001   9.96585702E-001
