# ./jetvheto -in n3lo-fixed-order/H125-LHC13-R04-mb-475-mt-1725-xmur050-xmuf025-log.fxd -xQ 0.5 -out benchmarks-n3lo-smallR/H125-LHC13-R04-mb-475-mt-1725-xmur050-xmuf025-xQ050-N3LO+NNLLa.R0-0.5.res -scheme a -order 2 -ptmax 500.01 -fixed_order 3 -small-r -loop-mass t+b -R0 0.5
# process = H    
# collider = pp   
# rts =  13000.000
# M   =    125.000
# muR =     62.500
# muF =     31.250
# Q   =     62.500
# p   =      5.000
# include_c1_squared =   F
# loop_mass  = t+b 
# alphas(MZ) =    0.11800
# alphas(M) =    0.11264
# alphas(muR) =    0.12516
# Rjet =      0.400
# order = NNLL
# pdf name and set = PDF4LHC15_nnlo_mc.LHgrid,    0
# matching scheme = a
# total cross sections [nb] at LO, NLOdiff, NNLOdiff, N3LOdiff =     0.012926    0.020318    0.009723    0.001827
#----------------------------------------------------------------------
# the lines that follow give the jet-veto efficiencies as a function of pt
#         pt            matched eff      resummed eff     fixed-order eff
   2.00000000E+001   4.33076543E-001   4.57043048E-001   4.39805765E-001
   2.50000000E+001   5.24617829E-001   5.35222188E-001   5.27879518E-001
   3.00000000E+001   5.97382241E-001   5.91314306E-001   5.97763702E-001
   3.50000000E+001   6.55971300E-001   6.31040147E-001   6.54452868E-001
   4.00000000E+001   7.04135238E-001   6.58718761E-001   7.01663673E-001
   4.50000000E+001   7.44380272E-001   6.77564031E-001   7.41596500E-001
   5.00000000E+001   7.77697893E-001   6.90046420E-001   7.74973831E-001
   5.50000000E+001   8.06525533E-001   6.98092806E-001   8.04101557E-001
   6.00000000E+001   8.30323201E-001   7.03166441E-001   8.28256473E-001
   6.50000000E+001   8.49471678E-001   7.06324600E-001   8.47757528E-001
   7.00000000E+001   8.67429174E-001   7.08287306E-001   8.66053392E-001
   7.50000000E+001   8.82709764E-001   7.09518344E-001   8.81619018E-001
   8.00000000E+001   8.95519803E-001   7.10304289E-001   8.94656024E-001
   8.50000000E+001   9.07365916E-001   7.10817609E-001   9.06684371E-001
   9.00000000E+001   9.17724721E-001   7.11161339E-001   9.17185507E-001
   9.50000000E+001   9.25511265E-001   7.11397336E-001   9.25080912E-001
   1.00000000E+002   9.33945188E-001   7.11563258E-001   9.33601797E-001
   1.05000000E+002   9.40522645E-001   7.11682488E-001   9.40245876E-001
   1.10000000E+002   9.47174637E-001   7.11769868E-001   9.46950790E-001
   1.15000000E+002   9.52913170E-001   7.11835044E-001   9.52730725E-001
   1.20000000E+002   9.57521168E-001   7.11884427E-001   9.57371245E-001
   1.25000000E+002   9.61521209E-001   7.11922372E-001   9.61397255E-001
   1.30000000E+002   9.65591117E-001   7.11951895E-001   9.65488145E-001
   1.35000000E+002   9.68967422E-001   7.11975125E-001   9.68881306E-001
   1.40000000E+002   9.72126674E-001   7.11993592E-001   9.72054298E-001
   1.45000000E+002   9.75053773E-001   7.12008407E-001   9.74992614E-001
   1.50000000E+002   9.77560402E-001   7.12020394E-001   9.77508455E-001
   1.55000000E+002   9.79859666E-001   7.12030169E-001   9.79815336E-001
   1.60000000E+002   9.82254122E-001   7.12038196E-001   9.82216151E-001
   1.65000000E+002   9.84029070E-001   7.12044831E-001   9.83996367E-001
   1.70000000E+002   9.85516900E-001   7.12050351E-001   9.85488613E-001
   1.75000000E+002   9.87273654E-001   7.12054968E-001   9.87249121E-001
   1.80000000E+002   9.88473202E-001   7.12058851E-001   9.88451821E-001
   1.85000000E+002   9.89838062E-001   7.12062133E-001   9.89819381E-001
   1.90000000E+002   9.90925215E-001   7.12064920E-001   9.90908828E-001
   1.95000000E+002   9.92077197E-001   7.12067298E-001   9.92062781E-001
   2.00000000E+002   9.92908196E-001   7.12069335E-001   9.92895469E-001
   2.05000000E+002   9.93720096E-001   7.12071086E-001   9.93708828E-001
   2.10000000E+002   9.94453410E-001   7.12072598E-001   9.94443406E-001
   2.15000000E+002   9.95268879E-001   7.12073908E-001   9.95259980E-001
   2.20000000E+002   9.95844198E-001   7.12075047E-001   9.95836254E-001
   2.25000000E+002   9.96504679E-001   7.12076040E-001   9.96497575E-001
   2.30000000E+002   9.96982304E-001   7.12076909E-001   9.96975934E-001
   2.35000000E+002   9.97337940E-001   7.12077672E-001   9.97332214E-001
   2.40000000E+002   9.97835503E-001   7.12078342E-001   9.97830347E-001
   2.45000000E+002   9.98240403E-001   7.12078934E-001   9.98235750E-001
