# ./jetvheto -in n3lo-fixed-order/H125-LHC13-R04-mb-475-mt-1725-xmur050-xmuf050-log.fxd -xQ 0.333 -out benchmarks-n3lo-smallR/H125-LHC13-R04-mb-475-mt-1725-xmur050-xmuf050-xQ033-N3LO+NNLLb.R0-2.0.res -scheme b -order 2 -ptmax 500.01 -fixed_order 3 -small-r -loop-mass t+b -R0 2.0
# process = H    
# collider = pp   
# rts =  13000.000
# M   =    125.000
# muR =     62.500
# muF =     62.500
# Q   =     41.625
# p   =      5.000
# include_c1_squared =   F
# loop_mass  = t+b 
# alphas(MZ) =    0.11800
# alphas(M) =    0.11264
# alphas(muR) =    0.12516
# Rjet =      0.400
# order = NNLL
# pdf name and set = PDF4LHC15_nnlo_mc.LHgrid,    0
# matching scheme = b
# total cross sections [nb] at LO, NLOdiff, NNLOdiff, N3LOdiff =     0.014147    0.020254    0.008998    0.001413
#----------------------------------------------------------------------
# the lines that follow give the jet-veto efficiencies as a function of pt
#         pt            matched eff      resummed eff     fixed-order eff
   2.00000000E+001   4.35808191E-001   4.72220638E-001   4.22880362E-001
   2.50000000E+001   5.20091456E-001   5.42881521E-001   5.10871357E-001
   3.00000000E+001   5.92457209E-001   5.90743567E-001   5.86554172E-001
   3.50000000E+001   6.50859225E-001   6.21798740E-001   6.46974526E-001
   4.00000000E+001   6.96712463E-001   6.41107870E-001   6.94053894E-001
   4.50000000E+001   7.37321214E-001   6.52757568E-001   7.35572065E-001
   5.00000000E+001   7.70172323E-001   6.59711188E-001   7.68984657E-001
   5.50000000E+001   7.98878637E-001   6.63891181E-001   7.98072300E-001
   6.00000000E+001   8.22620827E-001   6.66450874E-001   8.22057983E-001
   6.50000000E+001   8.44553085E-001   6.68056740E-001   8.44160448E-001
   7.00000000E+001   8.61683356E-001   6.69090539E-001   8.61397413E-001
   7.50000000E+001   8.76999774E-001   6.69773138E-001   8.76789719E-001
   8.00000000E+001   8.90848075E-001   6.70234735E-001   8.90691953E-001
   8.50000000E+001   9.03168038E-001   6.70553841E-001   9.03050366E-001
   9.00000000E+001   9.13986400E-001   6.70778934E-001   9.13896477E-001
   9.50000000E+001   9.22709720E-001   6.70940655E-001   9.22639584E-001
   1.00000000E+002   9.30979119E-001   6.71058803E-001   9.30924075E-001
   1.05000000E+002   9.37662878E-001   6.71146443E-001   9.37618957E-001
   1.10000000E+002   9.43756225E-001   6.71212362E-001   9.43720915E-001
   1.15000000E+002   9.49530638E-001   6.71262579E-001   9.49502090E-001
   1.20000000E+002   9.54702137E-001   6.71301282E-001   9.54678868E-001
   1.25000000E+002   9.59022997E-001   6.71331433E-001   9.59003817E-001
   1.30000000E+002   9.62780034E-001   6.71355156E-001   9.62764111E-001
   1.35000000E+002   9.66503722E-001   6.71373993E-001   9.66490458E-001
   1.40000000E+002   9.69891816E-001   6.71389078E-001   9.69880698E-001
   1.45000000E+002   9.72816742E-001   6.71401254E-001   9.72807360E-001
   1.50000000E+002   9.75110893E-001   6.71411154E-001   9.75102905E-001
   1.55000000E+002   9.77715567E-001   6.71419260E-001   9.77708768E-001
   1.60000000E+002   9.80044608E-001   6.71425940E-001   9.80038790E-001
   1.65000000E+002   9.81495640E-001   6.71431477E-001   9.81490611E-001
   1.70000000E+002   9.83328662E-001   6.71436094E-001   9.83324317E-001
   1.75000000E+002   9.85053062E-001   6.71439964E-001   9.85049293E-001
   1.80000000E+002   9.86370851E-001   6.71443224E-001   9.86367565E-001
   1.85000000E+002   9.87586836E-001   6.71445983E-001   9.87583960E-001
   1.90000000E+002   9.88822392E-001   6.71448330E-001   9.88819869E-001
   1.95000000E+002   9.89960452E-001   6.71450333E-001   9.89958231E-001
   2.00000000E+002   9.90963369E-001   6.71452051E-001   9.90961409E-001
   2.05000000E+002   9.91764463E-001   6.71453529E-001   9.91762726E-001
   2.10000000E+002   9.92562422E-001   6.71454807E-001   9.92560879E-001
   2.15000000E+002   9.93189544E-001   6.71455914E-001   9.93188169E-001
   2.20000000E+002   9.94073662E-001   6.71456876E-001   9.94072436E-001
   2.25000000E+002   9.94535156E-001   6.71457717E-001   9.94534058E-001
   2.30000000E+002   9.95095683E-001   6.71458452E-001   9.95094697E-001
   2.35000000E+002   9.95513414E-001   6.71459097E-001   9.95512527E-001
   2.40000000E+002   9.95961435E-001   6.71459665E-001   9.95960635E-001
   2.45000000E+002   9.96475279E-001   6.71460166E-001   9.96474558E-001
