# ./jetvheto -in n3lo-fixed-order/H125-LHC13-R04-mb-475-mt-1725-xmur050-xmuf050-log.fxd -xQ 0.5 -out benchmarks-n3lo-smallR/H125-LHC13-R04-mb-475-mt-1725-xmur050-xmuf050-xQ050-NNLO+NNLLa.R0-1.5.res -scheme a -order 2 -ptmax 500.01 -fixed_order 2 -small-r -loop-mass t+b -R0 1.5
# process = H    
# collider = pp   
# rts =  13000.000
# M   =    125.000
# muR =     62.500
# muF =     62.500
# Q   =     62.500
# p   =      5.000
# include_c1_squared =   F
# loop_mass  = t+b 
# alphas(MZ) =    0.11800
# alphas(M) =    0.11264
# alphas(muR) =    0.12516
# Rjet =      0.400
# order = NNLL
# pdf name and set = PDF4LHC15_nnlo_mc.LHgrid,    0
# matching scheme = a
# total cross sections [nb] at LO, NLOdiff, NNLOdiff, N3LOdiff =     0.014147    0.020254    0.008998    0.001413
#----------------------------------------------------------------------
# the lines that follow give the jet-veto efficiencies as a function of pt
#         pt            matched eff      resummed eff     fixed-order eff
   2.00000000E+001   4.66435150E-001   4.84753572E-001   4.51585809E-001
   2.50000000E+001   5.52280436E-001   5.57285020E-001   5.37845647E-001
   3.00000000E+001   6.20194622E-001   6.08382530E-001   6.05618957E-001
   3.50000000E+001   6.74442048E-001   6.43950889E-001   6.60103954E-001
   4.00000000E+001   7.18104585E-001   6.68247009E-001   7.04623301E-001
   4.50000000E+001   7.53939796E-001   6.84395739E-001   7.41826274E-001
   5.00000000E+001   7.83588633E-001   6.94777639E-001   7.73153273E-001
   5.50000000E+001   8.08380147E-001   7.01223165E-001   7.99700298E-001
   6.00000000E+001   8.29482146E-001   7.05102309E-001   8.22453602E-001
   6.50000000E+001   8.47646394E-001   7.07383093E-001   8.42063586E-001
   7.00000000E+001   8.63560145E-001   7.08708027E-001   8.59177351E-001
   7.50000000E+001   8.77407594E-001   7.09477654E-001   8.73986041E-001
   8.00000000E+001   8.89700213E-001   7.09929491E-001   8.87031290E-001
   8.50000000E+001   9.00648881E-001   7.10199719E-001   8.98561694E-001
   9.00000000E+001   9.10315873E-001   7.10365378E-001   9.08676257E-001
   9.50000000E+001   9.18883123E-001   7.10469811E-001   9.17587048E-001
   1.00000000E+002   9.26591271E-001   7.10537586E-001   9.25559652E-001
   1.05000000E+002   9.33469087E-001   7.10582855E-001   9.32641906E-001
   1.10000000E+002   9.39607387E-001   7.10613933E-001   9.38939368E-001
   1.15000000E+002   9.45155059E-001   7.10635823E-001   9.44611611E-001
   1.20000000E+002   9.50131153E-001   7.10651606E-001   9.49685968E-001
   1.25000000E+002   9.54663885E-001   7.10663228E-001   9.54296709E-001
   1.30000000E+002   9.58700103E-001   7.10671950E-001   9.58395322E-001
   1.35000000E+002   9.62359525E-001   7.10678606E-001   9.62105002E-001
   1.40000000E+002   9.65696186E-001   7.10683762E-001   9.65482383E-001
   1.45000000E+002   9.68704995E-001   7.10687810E-001   9.68524408E-001
   1.50000000E+002   9.71463709E-001   7.10691026E-001   9.71310382E-001
   1.55000000E+002   9.73962544E-001   7.10693608E-001   9.73831721E-001
   1.60000000E+002   9.76231136E-001   7.10695702E-001   9.76118993E-001
   1.65000000E+002   9.78282445E-001   7.10697413E-001   9.78185892E-001
   1.70000000E+002   9.80153529E-001   7.10698823E-001   9.80070053E-001
   1.75000000E+002   9.81887372E-001   7.10699994E-001   9.81814911E-001
   1.80000000E+002   9.83437940E-001   7.10700972E-001   9.83374805E-001
   1.85000000E+002   9.84879718E-001   7.10701793E-001   9.84824510E-001
   1.90000000E+002   9.86193575E-001   7.10702488E-001   9.86145135E-001
   1.95000000E+002   9.87389990E-001   7.10703078E-001   9.87347351E-001
   2.00000000E+002   9.88481213E-001   7.10703581E-001   9.88443563E-001
   2.05000000E+002   9.89488741E-001   7.10704013E-001   9.89455399E-001
   2.10000000E+002   9.90388327E-001   7.10704385E-001   9.90358717E-001
   2.15000000E+002   9.91243318E-001   7.10704706E-001   9.91216951E-001
   2.20000000E+002   9.92028023E-001   7.10704984E-001   9.92004483E-001
   2.25000000E+002   9.92718004E-001   7.10705227E-001   9.92696938E-001
   2.30000000E+002   9.93392533E-001   7.10705439E-001   9.93373635E-001
   2.35000000E+002   9.93980674E-001   7.10705624E-001   9.93963683E-001
   2.40000000E+002   9.94532130E-001   7.10705788E-001   9.94516819E-001
   2.45000000E+002   9.95029467E-001   7.10705931E-001   9.95015643E-001
