# ./jetvheto -in n3lo-fixed-order/H125-LHC13-R04-mb-0-mt-1725-xmur100-xmuf100-log.fxd -xQ 0.125 -out benchmarks-n3lo-smallR/H125-LHC13-R04-mb-0-mt-1725-xmur100-xmuf100-xQ125-NNLO+NNLLa.R0-0.5.res -scheme a -order 2 -ptmax 500.01 -small-r -fixed_order 2 -loop-mass t -R0 0.5
# process = H    
# collider = pp   
# rts =  13000.000
# M   =    125.000
# muR =    125.000
# muF =    125.000
# Q   =     15.625
# p   =      5.000
# include_c1_squared =   F
# loop_mass  = t   
# alphas(MZ) =    0.11800
# alphas(M) =    0.11264
# alphas(muR) =    0.11264
# Rjet =      0.400
# order = NNLL
# pdf name and set = PDF4LHC15_nnlo_mc.LHgrid,    0
# matching scheme = a
# total cross sections [nb] at LO, NLOdiff, NNLOdiff, N3LOdiff =     0.013801    0.017514    0.010146    0.003834
#----------------------------------------------------------------------
# the lines that follow give the jet-veto efficiencies as a function of pt
#         pt            matched eff      resummed eff     fixed-order eff
   2.00000000E+001   5.09790849E-001   5.18898285E-001   5.12111256E-001
   2.50000000E+001   5.91765371E-001   5.34719159E-001   5.93117916E-001
   3.00000000E+001   6.54441803E-001   5.39865228E-001   6.55183932E-001
   3.50000000E+001   7.03894751E-001   5.41792368E-001   7.04312652E-001
   4.00000000E+001   7.43866497E-001   5.42612144E-001   7.44112204E-001
   4.50000000E+001   7.76590468E-001   5.42998736E-001   7.76741158E-001
   5.00000000E+001   8.03903664E-001   5.43196721E-001   8.03999724E-001
   5.50000000E+001   8.26893149E-001   5.43305113E-001   8.26956486E-001
   6.00000000E+001   8.46539376E-001   5.43367800E-001   8.46582419E-001
   6.50000000E+001   8.63419600E-001   5.43405753E-001   8.63449624E-001
   7.00000000E+001   8.77931504E-001   5.43429640E-001   8.77952928E-001
   7.50000000E+001   8.90642031E-001   5.43445181E-001   8.90657633E-001
   8.00000000E+001   9.01773017E-001   5.43455587E-001   9.01784587E-001
   8.50000000E+001   9.11489765E-001   5.43462733E-001   9.11498483E-001
   9.00000000E+001   9.20091160E-001   5.43467750E-001   9.20097826E-001
   9.50000000E+001   9.27661206E-001   5.43471343E-001   9.27666371E-001
   1.00000000E+002   9.34412997E-001   5.43473961E-001   9.34417045E-001
   1.05000000E+002   9.40430913E-001   5.43475900E-001   9.40434122E-001
   1.10000000E+002   9.45746421E-001   5.43477356E-001   9.45748990E-001
   1.15000000E+002   9.50567278E-001   5.43478464E-001   9.50569353E-001
   1.20000000E+002   9.54865671E-001   5.43479318E-001   9.54867362E-001
   1.25000000E+002   9.58752106E-001   5.43479982E-001   9.58753493E-001
   1.30000000E+002   9.62266745E-001   5.43480505E-001   9.62267892E-001
   1.35000000E+002   9.65428464E-001   5.43480920E-001   9.65429419E-001
   1.40000000E+002   9.68287180E-001   5.43481252E-001   9.68287981E-001
   1.45000000E+002   9.70915285E-001   5.43481520E-001   9.70915959E-001
   1.50000000E+002   9.73259004E-001   5.43481738E-001   9.73259576E-001
   1.55000000E+002   9.75426270E-001   5.43481916E-001   9.75426757E-001
   1.60000000E+002   9.77405173E-001   5.43482063E-001   9.77405590E-001
   1.65000000E+002   9.79195809E-001   5.43482185E-001   9.79196168E-001
   1.70000000E+002   9.80841407E-001   5.43482287E-001   9.80841717E-001
   1.75000000E+002   9.82320284E-001   5.43482372E-001   9.82320552E-001
   1.80000000E+002   9.83692094E-001   5.43482443E-001   9.83692327E-001
   1.85000000E+002   9.84936286E-001   5.43482504E-001   9.84936490E-001
   1.90000000E+002   9.86088851E-001   5.43482556E-001   9.86089030E-001
   1.95000000E+002   9.87154566E-001   5.43482600E-001   9.87154723E-001
   2.00000000E+002   9.88119975E-001   5.43482637E-001   9.88120114E-001
   2.05000000E+002   9.89021530E-001   5.43482670E-001   9.89021653E-001
   2.10000000E+002   9.89836275E-001   5.43482698E-001   9.89836384E-001
   2.15000000E+002   9.90579537E-001   5.43482722E-001   9.90579634E-001
   2.20000000E+002   9.91277055E-001   5.43482744E-001   9.91277142E-001
   2.25000000E+002   9.91915058E-001   5.43482762E-001   9.91915136E-001
   2.30000000E+002   9.92505862E-001   5.43482778E-001   9.92505931E-001
   2.35000000E+002   9.93060117E-001   5.43482792E-001   9.93060180E-001
   2.40000000E+002   9.93557282E-001   5.43482805E-001   9.93557338E-001
   2.45000000E+002   9.94025056E-001   5.43482816E-001   9.94025107E-001
