# ./jetvheto -in n3lo-fixed-order/H125-LHC13-R04-mb-475-mt-1725-xmur050-xmuf025-log.fxd -xQ 0.5 -out benchmarks-n3lo-smallR/H125-LHC13-R04-mb-475-mt-1725-xmur050-xmuf025-xQ050-NNLO+NNLLb.res -scheme b -order 2 -ptmax 500.01 -fixed_order 2 -loop-mass t+b
# process = H    
# collider = pp   
# rts =  13000.000
# M   =    125.000
# muR =     62.500
# muF =     31.250
# Q   =     62.500
# p   =      5.000
# include_c1_squared =   F
# loop_mass  = t+b 
# alphas(MZ) =    0.11800
# alphas(M) =    0.11264
# alphas(muR) =    0.12516
# Rjet =      0.400
# order = NNLL
# pdf name and set = PDF4LHC15_nnlo_mc.LHgrid,    0
# matching scheme = b
# total cross sections [nb] at LO, NLOdiff, NNLOdiff, N3LOdiff =     0.012926    0.020318    0.009723    0.001827
#----------------------------------------------------------------------
# the lines that follow give the jet-veto efficiencies as a function of pt
#         pt            matched eff      resummed eff     fixed-order eff
   2.00000000E+001   3.83147578E-001   4.56769294E-001   2.88336474E-001
   2.50000000E+001   4.66116684E-001   5.35013595E-001   3.97742417E-001
   3.00000000E+001   5.34609263E-001   5.91158833E-001   4.83975232E-001
   3.50000000E+001   5.92172799E-001   6.30925937E-001   5.54141575E-001
   4.00000000E+001   6.40682441E-001   6.58635795E-001   6.11905414E-001
   4.50000000E+001   6.82005332E-001   6.77504286E-001   6.60208815E-001
   5.00000000E+001   7.17510708E-001   6.90003646E-001   7.01026371E-001
   5.50000000E+001   7.48118252E-001   6.98062245E-001   7.35693044E-001
   6.00000000E+001   7.74857058E-001   7.03144564E-001   7.65510942E-001
   6.50000000E+001   7.98352555E-001   7.06308850E-001   7.91321316E-001
   7.00000000E+001   8.19244507E-001   7.08275867E-001   8.13940958E-001
   7.50000000E+001   8.37449694E-001   7.09509946E-001   8.33429617E-001
   8.00000000E+001   8.53818491E-001   7.10298050E-001   8.50751155E-001
   8.50000000E+001   8.68429536E-001   7.10812916E-001   8.66070164E-001
   9.00000000E+001   8.81404692E-001   7.11157766E-001   8.79574110E-001
   9.50000000E+001   8.92857132E-001   7.11394582E-001   8.91423954E-001
   1.00000000E+002   9.03127600E-001   7.11561112E-001   9.01995478E-001
   1.05000000E+002   9.12413183E-001   7.11680797E-001   9.11510900E-001
   1.10000000E+002   9.20691580E-001   7.11768523E-001   9.19966378E-001
   1.15000000E+002   9.28193119E-001   7.11833964E-001   9.27605481E-001
   1.20000000E+002   9.34980043E-001   7.11883552E-001   9.34500136E-001
   1.25000000E+002   9.41040926E-001   7.11921657E-001   9.40646112E-001
   1.30000000E+002   9.46544841E-001   7.11951306E-001   9.46217827E-001
   1.35000000E+002   9.51505052E-001   7.11974637E-001   9.51232453E-001
   1.40000000E+002   9.55980144E-001   7.11993184E-001   9.55751503E-001
   1.45000000E+002   9.60121235E-001   7.12008065E-001   9.59928357E-001
   1.50000000E+002   9.63841205E-001   7.12020105E-001   9.63677611E-001
   1.55000000E+002   9.67226115E-001   7.12029923E-001   9.67086651E-001
   1.60000000E+002   9.70328256E-001   7.12037986E-001   9.70208793E-001
   1.65000000E+002   9.73137082E-001   7.12044652E-001   9.73034291E-001
   1.70000000E+002   9.75683258E-001   7.12050196E-001   9.75594429E-001
   1.75000000E+002   9.78002092E-001   7.12054834E-001   9.77925021E-001
   1.80000000E+002   9.80107937E-001   7.12058734E-001   9.80040810E-001
   1.85000000E+002   9.82019789E-001   7.12062031E-001   9.81961107E-001
   1.90000000E+002   9.83796146E-001   7.12064831E-001   9.83744670E-001
   1.95000000E+002   9.85423755E-001   7.12067220E-001   9.85378453E-001
   2.00000000E+002   9.86902138E-001   7.12069266E-001   9.86862141E-001
   2.05000000E+002   9.88269360E-001   7.12071025E-001   9.88233944E-001
   2.10000000E+002   9.89521591E-001   7.12072544E-001   9.89490142E-001
   2.15000000E+002   9.90626382E-001   7.12073860E-001   9.90598380E-001
   2.20000000E+002   9.91671697E-001   7.12075005E-001   9.91646698E-001
   2.25000000E+002   9.92621770E-001   7.12076002E-001   9.92599398E-001
   2.30000000E+002   9.93476968E-001   7.12076875E-001   9.93456899E-001
   2.35000000E+002   9.94275890E-001   7.12077641E-001   9.94257844E-001
   2.40000000E+002   9.94985248E-001   7.12078315E-001   9.94968988E-001
   2.45000000E+002   9.95633572E-001   7.12078909E-001   9.95618890E-001
