# ./jetvheto -in n3lo-fixed-order/H125-LHC13-R04-heft-xmur100-xmuf100-log.fxd -xQ 0.25 -out benchmarks-n3lo-smallR/H125-LHC13-R04-heft-xmur100-xmuf100-xQ025-N3LO+NNLLb.R0-1.0.res -scheme b -order 2 -ptmax 500.01 -fixed_order 3 -small-r -R0 1.0
# process = H    
# collider = pp   
# rts =  13000.000
# M   =    125.000
# muR =    125.000
# muF =    125.000
# Q   =     31.250
# p   =      5.000
# include_c1_squared =   F
# loop_mass  = none
# alphas(MZ) =    0.11800
# alphas(M) =    0.11264
# alphas(muR) =    0.11264
# Rjet =      0.400
# order = NNLL
# pdf name and set = PDF4LHC15_nnlo_mc.LHgrid,    0
# matching scheme = b
# total cross sections [nb] at LO, NLOdiff, NNLOdiff, N3LOdiff =     0.012945    0.016716    0.010146    0.003834
#----------------------------------------------------------------------
# the lines that follow give the jet-veto efficiencies as a function of pt
#         pt            matched eff      resummed eff     fixed-order eff
   2.00000000E+001   4.27126975E-001   5.36146831E-001   4.08842854E-001
   2.50000000E+001   5.11398609E-001   6.08198139E-001   5.02042917E-001
   3.00000000E+001   5.84574256E-001   6.50572225E-001   5.80189507E-001
   3.50000000E+001   6.42678243E-001   6.73630041E-001   6.40535859E-001
   4.00000000E+001   6.90465906E-001   6.85741240E-001   6.89380469E-001
   4.50000000E+001   7.29652757E-001   6.92141514E-001   7.29072921E-001
   5.00000000E+001   7.63039418E-001   6.95627711E-001   7.62718280E-001
   5.50000000E+001   7.91649190E-001   6.97602939E-001   7.91464926E-001
   6.00000000E+001   8.15790401E-001   6.98768159E-001   8.15679320E-001
   6.50000000E+001   8.37375578E-001   6.99482063E-001   8.37307615E-001
   7.00000000E+001   8.55571226E-001   6.99934703E-001   8.55527758E-001
   7.50000000E+001   8.70682613E-001   7.00230601E-001   8.70653294E-001
   8.00000000E+001   8.83948868E-001   7.00429361E-001   8.83928611E-001
   8.50000000E+001   8.95940815E-001   7.00566137E-001   8.95926690E-001
   9.00000000E+001   9.06193274E-001   7.00662308E-001   9.06183068E-001
   9.50000000E+001   9.15573991E-001   7.00731245E-001   9.15566581E-001
   1.00000000E+002   9.23398522E-001   7.00781526E-001   9.23392937E-001
   1.05000000E+002   9.30421008E-001   7.00818778E-001   9.30416744E-001
   1.10000000E+002   9.36765136E-001   7.00846771E-001   9.36761850E-001
   1.15000000E+002   9.42445348E-001   7.00868082E-001   9.42442779E-001
   1.20000000E+002   9.47393209E-001   7.00884498E-001   9.47391165E-001
   1.25000000E+002   9.51668984E-001   7.00897282E-001   9.51667329E-001
   1.30000000E+002   9.55944262E-001   7.00907337E-001   9.55942935E-001
   1.35000000E+002   9.59716931E-001   7.00915318E-001   9.59715852E-001
   1.40000000E+002   9.62865447E-001   7.00921709E-001   9.62864552E-001
   1.45000000E+002   9.65894073E-001   7.00926867E-001   9.65893331E-001
   1.50000000E+002   9.68454779E-001   7.00931060E-001   9.68454154E-001
   1.55000000E+002   9.71202512E-001   7.00934493E-001   9.71201993E-001
   1.60000000E+002   9.73079912E-001   7.00937321E-001   9.73079465E-001
   1.65000000E+002   9.75095887E-001   7.00939666E-001   9.75095505E-001
   1.70000000E+002   9.76873314E-001   7.00941620E-001   9.76872986E-001
   1.75000000E+002   9.78606777E-001   7.00943259E-001   9.78606495E-001
   1.80000000E+002   9.80202240E-001   7.00944639E-001   9.80201996E-001
   1.85000000E+002   9.81638302E-001   7.00945807E-001   9.81638090E-001
   1.90000000E+002   9.82646220E-001   7.00946800E-001   9.82646032E-001
   1.95000000E+002   9.83952764E-001   7.00947648E-001   9.83952600E-001
   2.00000000E+002   9.85072174E-001   7.00948376E-001   9.85072030E-001
   2.05000000E+002   9.86033246E-001   7.00949001E-001   9.86033119E-001
   2.10000000E+002   9.86906144E-001   7.00949542E-001   9.86906031E-001
   2.15000000E+002   9.87868612E-001   7.00950011E-001   9.87868512E-001
   2.20000000E+002   9.88576281E-001   7.00950418E-001   9.88576191E-001
   2.25000000E+002   9.89323312E-001   7.00950774E-001   9.89323232E-001
   2.30000000E+002   9.90024686E-001   7.00951085E-001   9.90024614E-001
   2.35000000E+002   9.90683433E-001   7.00951358E-001   9.90683369E-001
   2.40000000E+002   9.91145470E-001   7.00951598E-001   9.91145412E-001
   2.45000000E+002   9.91748161E-001   7.00951811E-001   9.91748108E-001
