# ./jetvheto -in n3lo-fixed-order/H125-LHC13-R04-mb-0-mt-1725-xmur050-xmuf050-log.fxd -xQ 0.0625 -out benchmarks-n3lo-smallR/H125-LHC13-R04-mb-0-mt-1725-xmur050-xmuf050-xQ0625-N3LO+NNLLb.res -scheme b -order 2 -ptmax 500.01 -fixed_order 3 -loop-mass t
# process = H    
# collider = pp   
# rts =  13000.000
# M   =    125.000
# muR =     62.500
# muF =     62.500
# Q   =      7.812
# p   =      5.000
# include_c1_squared =   F
# loop_mass  = t   
# alphas(MZ) =    0.11800
# alphas(M) =    0.11264
# alphas(muR) =    0.12516
# Rjet =      0.400
# order = NNLL
# pdf name and set = PDF4LHC15_nnlo_mc.LHgrid,    0
# matching scheme = b
# total cross sections [nb] at LO, NLOdiff, NNLOdiff, N3LOdiff =     0.015885    0.020561    0.008998    0.001413
#----------------------------------------------------------------------
# the lines that follow give the jet-veto efficiencies as a function of pt
#         pt            matched eff      resummed eff     fixed-order eff
   2.00000000E+001   4.41701089E-001   1.71712497E-001   4.41643521E-001
   2.50000000E+001   5.29541004E-001   1.72081395E-001   5.29528045E-001
   3.00000000E+001   6.04132130E-001   1.72189443E-001   6.04131024E-001
   3.50000000E+001   6.63336154E-001   1.72228509E-001   6.63337130E-001
   4.00000000E+001   7.09301484E-001   1.72244902E-001   7.09302441E-001
   4.50000000E+001   7.49370601E-001   1.72252586E-001   7.49371437E-001
   5.00000000E+001   7.81701805E-001   1.72256510E-001   7.81702411E-001
   5.50000000E+001   8.09465341E-001   1.72258656E-001   8.09465789E-001
   6.00000000E+001   8.32379107E-001   1.72259895E-001   8.32379427E-001
   6.50000000E+001   8.53504240E-001   1.72260645E-001   8.53504482E-001
   7.00000000E+001   8.69854675E-001   1.72261117E-001   8.69854849E-001
   7.50000000E+001   8.84440456E-001   1.72261424E-001   8.84440584E-001
   8.00000000E+001   8.97582937E-001   1.72261630E-001   8.97583035E-001
   8.50000000E+001   9.09233248E-001   1.72261771E-001   9.09233323E-001
   9.00000000E+001   9.19502605E-001   1.72261870E-001   9.19502663E-001
   9.50000000E+001   9.27728235E-001   1.72261941E-001   9.27728280E-001
   1.00000000E+002   9.35563190E-001   1.72261993E-001   9.35563225E-001
   1.05000000E+002   9.41788339E-001   1.72262031E-001   9.41788367E-001
   1.10000000E+002   9.47503045E-001   1.72262060E-001   9.47503067E-001
   1.15000000E+002   9.52902983E-001   1.72262081E-001   9.52903001E-001
   1.20000000E+002   9.57766381E-001   1.72262098E-001   9.57766396E-001
   1.25000000E+002   9.61821768E-001   1.72262111E-001   9.61821780E-001
   1.30000000E+002   9.65320862E-001   1.72262122E-001   9.65320871E-001
   1.35000000E+002   9.68789911E-001   1.72262130E-001   9.68789919E-001
   1.40000000E+002   9.71951345E-001   1.72262137E-001   9.71951352E-001
   1.45000000E+002   9.74702878E-001   1.72262142E-001   9.74702884E-001
   1.50000000E+002   9.76854442E-001   1.72262146E-001   9.76854447E-001
   1.55000000E+002   9.79289597E-001   1.72262150E-001   9.79289601E-001
   1.60000000E+002   9.81470676E-001   1.72262153E-001   9.81470679E-001
   1.65000000E+002   9.82816916E-001   1.72262155E-001   9.82816919E-001
   1.70000000E+002   9.84547444E-001   1.72262157E-001   9.84547446E-001
   1.75000000E+002   9.86142524E-001   1.72262159E-001   9.86142527E-001
   1.80000000E+002   9.87365625E-001   1.72262160E-001   9.87365627E-001
   1.85000000E+002   9.88489567E-001   1.72262161E-001   9.88489569E-001
   1.90000000E+002   9.89639800E-001   1.72262162E-001   9.89639801E-001
   1.95000000E+002   9.90701721E-001   1.72262163E-001   9.90701722E-001
   2.00000000E+002   9.91640531E-001   1.72262164E-001   9.91640532E-001
   2.05000000E+002   9.92381270E-001   1.72262165E-001   9.92381271E-001
   2.10000000E+002   9.93124355E-001   1.72262165E-001   9.93124356E-001
   2.15000000E+002   9.93702165E-001   1.72262166E-001   9.93702166E-001
   2.20000000E+002   9.94523969E-001   1.72262166E-001   9.94523970E-001
   2.25000000E+002   9.94951215E-001   1.72262166E-001   9.94951215E-001
   2.30000000E+002   9.95476722E-001   1.72262167E-001   9.95476723E-001
   2.35000000E+002   9.95859518E-001   1.72262167E-001   9.95859519E-001
   2.40000000E+002   9.96276754E-001   1.72262167E-001   9.96276754E-001
   2.45000000E+002   9.96764479E-001   1.72262167E-001   9.96764480E-001
