# ./jetvheto -in n3lo-fixed-order/H125-LHC13-R04-mb-475-mt-1725-xmur050-xmuf050-log.fxd -xQ 0.5 -out benchmarks-n3lo-smallR/H125-LHC13-R04-mb-475-mt-1725-xmur050-xmuf050-xQ050-NNLO+NNLLb.R0-0.5.res -scheme b -order 2 -ptmax 500.01 -fixed_order 2 -small-r -loop-mass t+b -R0 0.5
# process = H    
# collider = pp   
# rts =  13000.000
# M   =    125.000
# muR =     62.500
# muF =     62.500
# Q   =     62.500
# p   =      5.000
# include_c1_squared =   F
# loop_mass  = t+b 
# alphas(MZ) =    0.11800
# alphas(M) =    0.11264
# alphas(muR) =    0.12516
# Rjet =      0.400
# order = NNLL
# pdf name and set = PDF4LHC15_nnlo_mc.LHgrid,    0
# matching scheme = b
# total cross sections [nb] at LO, NLOdiff, NNLOdiff, N3LOdiff =     0.014147    0.020254    0.008998    0.001413
#----------------------------------------------------------------------
# the lines that follow give the jet-veto efficiencies as a function of pt
#         pt            matched eff      resummed eff     fixed-order eff
   2.00000000E+001   3.98419920E-001   4.73207141E-001   3.08135668E-001
   2.50000000E+001   4.82415023E-001   5.48704808E-001   4.16958718E-001
   3.00000000E+001   5.51324976E-001   6.02094849E-001   5.02459671E-001
   3.50000000E+001   6.08337688E-001   6.39386936E-001   5.71196452E-001
   4.00000000E+001   6.55811717E-001   6.64960300E-001   6.27360842E-001
   4.50000000E+001   6.96121094E-001   6.82043947E-001   6.74295094E-001
   5.00000000E+001   7.30508445E-001   6.93101653E-001   7.13816378E-001
   5.50000000E+001   7.60020873E-001   7.00029750E-001   7.47307378E-001
   6.00000000E+001   7.85667401E-001   7.04250042E-001   7.76012324E-001
   6.50000000E+001   8.08075897E-001   7.06770535E-001   8.00751743E-001
   7.00000000E+001   8.27906810E-001   7.08263674E-001   8.22342000E-001
   7.50000000E+001   8.45269268E-001   7.09151711E-001   8.41024239E-001
   8.00000000E+001   8.60739241E-001   7.09687477E-001   8.57481768E-001
   8.50000000E+001   8.74546178E-001   7.10017759E-001   8.72028209E-001
   9.00000000E+001   8.86750054E-001   7.10226863E-001   8.84788465E-001
   9.50000000E+001   8.97571347E-001   7.10363096E-001   8.96030076E-001
   1.00000000E+002   9.07309483E-001   7.10454427E-001   9.06088095E-001
   1.05000000E+002   9.15999042E-001   7.10517351E-001   9.15022873E-001
   1.10000000E+002   9.23754007E-001   7.10561815E-001   9.22967578E-001
   1.15000000E+002   9.30762136E-001   7.10593963E-001   9.30123525E-001
   1.20000000E+002   9.37047611E-001   7.10617689E-001   9.36525194E-001
   1.25000000E+002   9.42772396E-001   7.10635521E-001   9.42341979E-001
   1.30000000E+002   9.47869660E-001   7.10649143E-001   9.47512677E-001
   1.35000000E+002   9.52490635E-001   7.10659699E-001   9.52192707E-001
   1.40000000E+002   9.56703658E-001   7.10667984E-001   9.56453519E-001
   1.45000000E+002   9.60502451E-001   7.10674561E-001   9.60291255E-001
   1.50000000E+002   9.63985223E-001   7.10679836E-001   9.63805964E-001
   1.55000000E+002   9.67139729E-001   7.10684106E-001   9.66986816E-001
   1.60000000E+002   9.70003428E-001   7.10687590E-001   9.69872376E-001
   1.65000000E+002   9.72592737E-001   7.10690456E-001   9.72479918E-001
   1.70000000E+002   9.74954451E-001   7.10692829E-001   9.74856924E-001
   1.75000000E+002   9.77142838E-001   7.10694807E-001   9.77058190E-001
   1.80000000E+002   9.79099857E-001   7.10696466E-001   9.79026110E-001
   1.85000000E+002   9.80919503E-001   7.10697864E-001   9.80855018E-001
   1.90000000E+002   9.82577659E-001   7.10699048E-001   9.82521082E-001
   1.95000000E+002   9.84087565E-001   7.10700057E-001   9.84037765E-001
   2.00000000E+002   9.85464688E-001   7.10700919E-001   9.85420716E-001
   2.05000000E+002   9.86736160E-001   7.10701660E-001   9.86697220E-001
   2.10000000E+002   9.87871402E-001   7.10702298E-001   9.87836822E-001
   2.15000000E+002   9.88950339E-001   7.10702851E-001   9.88919546E-001
   2.20000000E+002   9.89940566E-001   7.10703331E-001   9.89913075E-001
   2.25000000E+002   9.90811260E-001   7.10703749E-001   9.90786656E-001
   2.30000000E+002   9.91662430E-001   7.10704115E-001   9.91640359E-001
   2.35000000E+002   9.92404591E-001   7.10704435E-001   9.92384747E-001
   2.40000000E+002   9.93100450E-001   7.10704717E-001   9.93082569E-001
   2.45000000E+002   9.93728016E-001   7.10704966E-001   9.93711871E-001
