# python build-Q2-histos.py --mtQ1file ../../JetVHeto/benchmarks-n3lo-smallR/H125-LHC13-R04-mb-0-mt-1725-xmur100-xmuf050-xQ050-NNLO+NNLLb.R0-1.0.res --mtQ2file ../../JetVHeto/benchmarks-n3lo-smallR/H125-LHC13-R04-mb-0-mt-1725-xmur100-xmuf050-xQ0625-NNLO+NNLLb.R0-1.0.res --mtmbQ2file ../../JetVHeto/benchmarks-n3lo-smallR/H125-LHC13-R04-mb-475-mt-1725-xmur100-xmuf050-xQ0625-NNLO+NNLLb.R0-1.0.res
# process = H    
# collider = pp   
# rts =  13000.000
# M   =    125.000
# muR =    125.000
# muF =     62.500
# Q1  =  62.500; Q2  =  7.812
# p   =      5.000
# include_c1_squared =   F
# loop_mass  = t+b 
# alphas(MZ) =    0.11800
# alphas(M) =    0.11264
# alphas(muR) =    0.11264
# Rjet =      0.400
# order = NNLL
# pdf name and set = PDF4LHC15_nnlo_mc.LHgrid,    0
# matching scheme = b
# total cross sections [nb] at LO, NLOdiff, NNLOdiff, N3LOdiff =     0.011575    0.016866    0.010424    0.004163
#----------------------------------------------------------------------
# the lines that follow give the jet-veto efficiencies as a function of pt
#         pt            matched eff      resummed eff     fixed-order eff
20.0 0.38629584622 0.510008143773 0.301797175
25.0 0.471106637121 0.598581788978 0.412444386
30.0 0.540848984597 0.66214569101 0.498409551
35.0 0.598691545833 0.707205670229 0.567166648
40.0 0.64693490263 0.738610348592 0.623168191
45.0 0.687957652919 0.759988447977 0.669933084
50.0 0.722953634816 0.77414416936 0.709277749
55.0 0.752984485491 0.783263944079 0.742632321
60.0 0.779081298351 0.789011188553 0.771258431
65.0 0.801856092078 0.792585868418 0.795947126
70.0 0.821981973817 0.794805376269 0.817511462
75.0 0.8396236979 0.796196096178 0.836227208
80.0 0.855329798639 0.797082895897 0.852733853
85.0 0.869354072794 0.79766123267 0.867355329
90.0 0.881739699541 0.79804798759 0.880188173
95.0 0.892757959751 0.798313219139 0.891543074
100.0 0.902671565934 0.798499511408 0.901711868
105.0 0.911552984487 0.798633262058 0.910788355
110.0 0.919473165212 0.798731215136 0.918858861
115.0 0.926652411526 0.798804231428 0.92615487
120.0 0.933097484151 0.798859530585 0.932691413
125.0 0.938977689792 0.798902002678 0.938643846
130.0 0.944235851945 0.798935035181 0.943959515
135.0 0.948999529907 0.798961022372 0.948769326
140.0 0.953356648197 0.798981674696 0.953163692
145.0 0.957300380657 0.798998240004 0.957137703
150.0 0.960915920752 0.799011642392 0.96077803
155.0 0.96420200107 0.799022570007 0.964084524
160.0 0.967191304813 0.799031541828 0.967090738
165.0 0.969904752279 0.799038957796 0.969818268
170.0 0.972377798868 0.799045125912 0.972303105
175.0 0.974671709534 0.799050285349 0.974606939
180.0 0.976736984347 0.799054624024 0.976680599
185.0 0.978659802807 0.799058291305 0.978610537
190.0 0.980412134627 0.799061406146 0.980368941
195.0 0.98201623651 0.799064062615 0.981978238
200.0 0.983482683351 0.799066338986 0.983449152
205.0 0.984836212153 0.799068295823 0.984806533
210.0 0.986053836848 0.799069984338 0.986027493
215.0 0.987207835206 0.7990714483 0.987184387
220.0 0.988269395309 0.799072721169 0.988248471
225.0 0.989214676946 0.799073830138 0.989195956
230.0 0.990124128082 0.799074801225 0.99010734
235.0 0.990929373125 0.799075653314 0.990914285
240.0 0.991684620747 0.79907640098 0.991671028
245.0 0.992365879756 0.799077062976 0.99235361
