# ./jetvheto -in n3lo-fixed-order/H125-LHC13-R04-heft-xmur050-xmuf025-log.fxd -xQ 0.50 -out benchmarks-n3lo-smallR/H125-LHC13-R04-heft-xmur050-xmuf025-xQ050-N3LO+NNLLb.R0-1.0.res -scheme b -order 2 -ptmax 500.01 -fixed_order 3 -small-r -R0 1.0
# process = H    
# collider = pp   
# rts =  13000.000
# M   =    125.000
# muR =     62.500
# muF =     31.250
# Q   =     62.500
# p   =      5.000
# include_c1_squared =   F
# loop_mass  = none
# alphas(MZ) =    0.11800
# alphas(M) =    0.11264
# alphas(muR) =    0.12516
# Rjet =      0.400
# order = NNLL
# pdf name and set = PDF4LHC15_nnlo_mc.LHgrid,    0
# matching scheme = b
# total cross sections [nb] at LO, NLOdiff, NNLOdiff, N3LOdiff =     0.013759    0.019772    0.009723    0.001827
#----------------------------------------------------------------------
# the lines that follow give the jet-veto efficiencies as a function of pt
#         pt            matched eff      resummed eff     fixed-order eff
   2.00000000E+001   4.42840700E-001   4.82662081E-001   4.27203495E-001
   2.50000000E+001   5.32002793E-001   5.63041385E-001   5.19088129E-001
   3.00000000E+001   6.02527800E-001   6.20600787E-001   5.91367989E-001
   3.50000000E+001   6.59040413E-001   6.61299888E-001   6.49393365E-001
   4.00000000E+001   7.05409501E-001   6.89609683E-001   6.97284430E-001
   4.50000000E+001   7.44272732E-001   7.08847042E-001   7.37595273E-001
   5.00000000E+001   7.76414106E-001   7.21557949E-001   7.71023045E-001
   5.50000000E+001   8.04503308E-001   7.29726444E-001   8.00251087E-001
   6.00000000E+001   8.27798604E-001   7.34857594E-001   8.24469559E-001
   6.50000000E+001   8.46428452E-001   7.38037233E-001   8.43832463E-001
   7.00000000E+001   8.63924285E-001   7.40003274E-001   8.61923051E-001
   7.50000000E+001   8.78917038E-001   7.41229704E-001   8.77374981E-001
   8.00000000E+001   8.91402296E-001   7.42008391E-001   8.90207252E-001
   8.50000000E+001   9.02931944E-001   7.42514262E-001   9.02003239E-001
   9.00000000E+001   9.13028558E-001   7.42851334E-001   9.12302062E-001
   9.50000000E+001   9.20589752E-001   7.43081741E-001   9.20015465E-001
   1.00000000E+002   9.28899364E-001   7.43243114E-001   9.28443885E-001
   1.05000000E+002   9.35276840E-001   7.43358698E-001   9.34911773E-001
   1.10000000E+002   9.41848921E-001   7.43443177E-001   9.41554741E-001
   1.15000000E+002   9.47466629E-001   7.43506047E-001   9.47227616E-001
   1.20000000E+002   9.51902452E-001   7.43553595E-001   9.51706631E-001
   1.25000000E+002   9.55736034E-001   7.43590074E-001   9.55574531E-001
   1.30000000E+002   9.59717359E-001   7.43618422E-001   9.59583425E-001
   1.35000000E+002   9.63026570E-001   7.43640705E-001   9.62914740E-001
   1.40000000E+002   9.66109744E-001   7.43658403E-001   9.66015872E-001
   1.45000000E+002   9.68956772E-001   7.43672592E-001   9.68877534E-001
   1.50000000E+002   9.71381936E-001   7.43684067E-001   9.71314695E-001
   1.55000000E+002   9.73621757E-001   7.43693418E-001   9.73564421E-001
   1.60000000E+002   9.75975595E-001   7.43701095E-001   9.75926506E-001
   1.65000000E+002   9.77729297E-001   7.43707439E-001   9.77687045E-001
   1.70000000E+002   9.79196211E-001   7.43712715E-001   9.79159686E-001
   1.75000000E+002   9.80973363E-001   7.43717127E-001   9.80941692E-001
   1.80000000E+002   9.82184191E-001   7.43720837E-001   9.82156602E-001
   1.85000000E+002   9.83558724E-001   7.43723972E-001   9.83534622E-001
   1.90000000E+002   9.84662876E-001   7.43726634E-001   9.84641738E-001
   1.95000000E+002   9.85841934E-001   7.43728905E-001   9.85823341E-001
   2.00000000E+002   9.86694381E-001   7.43730850E-001   9.86677971E-001
   2.05000000E+002   9.87548266E-001   7.43732522E-001   9.87533739E-001
   2.10000000E+002   9.88336008E-001   7.43733966E-001   9.88323112E-001
   2.15000000E+002   9.89222741E-001   7.43735216E-001   9.89211268E-001
   2.20000000E+002   9.89864481E-001   7.43736304E-001   9.89854241E-001
   2.25000000E+002   9.90602777E-001   7.43737252E-001   9.90593619E-001
   2.30000000E+002   9.91150809E-001   7.43738081E-001   9.91142597E-001
   2.35000000E+002   9.91579334E-001   7.43738809E-001   9.91571952E-001
   2.40000000E+002   9.92167628E-001   7.43739449E-001   9.92160980E-001
   2.45000000E+002   9.92673202E-001   7.43740014E-001   9.92667202E-001
