# ./jetvheto -in n3lo-fixed-order/H125-LHC13-R04-mb-0-mt-1725-xmur025-xmuf050-log.fxd -xQ 0.5 -out benchmarks-n3lo-smallR/H125-LHC13-R04-mb-0-mt-1725-xmur025-xmuf050-xQ050-NNLO+NNLLa.R0-1.5.res -scheme a -order 2 -ptmax 500.01 -small-r -fixed_order 2 -loop-mass t -R0 1.5
# process = H    
# collider = pp   
# rts =  13000.000
# M   =    125.000
# muR =     31.250
# muF =     62.500
# Q   =     62.500
# p   =      5.000
# include_c1_squared =   F
# loop_mass  = t   
# alphas(MZ) =    0.11800
# alphas(M) =    0.11264
# alphas(muR) =    0.14091
# Rjet =      0.400
# order = NNLL
# pdf name and set = PDF4LHC15_nnlo_mc.LHgrid,    0
# matching scheme = a
# total cross sections [nb] at LO, NLOdiff, NNLOdiff, N3LOdiff =     0.019855    0.024744    0.005009   -0.002663
#----------------------------------------------------------------------
# the lines that follow give the jet-veto efficiencies as a function of pt
#         pt            matched eff      resummed eff     fixed-order eff
   2.00000000E+001   5.03978044E-001   5.11331647E-001   4.32957478E-001
   2.50000000E+001   5.82630784E-001   5.75368836E-001   5.23268277E-001
   3.00000000E+001   6.44169082E-001   6.19383576E-001   5.94997758E-001
   3.50000000E+001   6.93210655E-001   6.49217170E-001   6.52852727E-001
   4.00000000E+001   7.32888935E-001   6.68955486E-001   7.00189076E-001
   4.50000000E+001   7.65551345E-001   6.81543978E-001   7.39439888E-001
   5.00000000E+001   7.93163455E-001   6.89196131E-001   7.72597069E-001
   5.50000000E+001   8.16341909E-001   6.93588472E-001   8.00363223E-001
   6.00000000E+001   8.36433816E-001   6.95950321E-001   8.24125039E-001
   6.50000000E+001   8.54022121E-001   6.97125291E-001   8.44589142E-001
   7.00000000E+001   8.69534695E-001   6.97651280E-001   8.62316742E-001
   7.50000000E+001   8.83096975E-001   6.97845549E-001   8.77562874E-001
   8.00000000E+001   8.95200272E-001   6.97882413E-001   8.90937501E-001
   8.50000000E+001   9.05991088E-001   6.97851788E-001   9.02686522E-001
   9.00000000E+001   9.15601518E-001   6.97797637E-001   9.13020832E-001
   9.50000000E+001   9.24048739E-001   6.97739971E-001   9.22017282E-001
   1.00000000E+002   9.31694586E-001   6.97686992E-001   9.30082050E-001
   1.05000000E+002   9.38391287E-001   6.97641364E-001   9.37101049E-001
   1.10000000E+002   9.44414320E-001   6.97603307E-001   9.43373741E-001
   1.15000000E+002   9.49815328E-001   6.97572079E-001   9.48969590E-001
   1.20000000E+002   9.54678016E-001   6.97546651E-001   9.53985574E-001
   1.25000000E+002   9.59094219E-001   6.97526002E-001   9.58523292E-001
   1.30000000E+002   9.62975181E-001   6.97509230E-001   9.62501393E-001
   1.35000000E+002   9.66494283E-001   6.97495577E-001   9.66098675E-001
   1.40000000E+002   9.69688858E-001   6.97484428E-001   9.69356558E-001
   1.45000000E+002   9.72570371E-001   6.97475287E-001   9.72289680E-001
   1.50000000E+002   9.75212356E-001   6.97467761E-001   9.74974013E-001
   1.55000000E+002   9.77575965E-001   6.97461536E-001   9.77372588E-001
   1.60000000E+002   9.79717146E-001   6.97456363E-001   9.79542793E-001
   1.65000000E+002   9.81638288E-001   6.97452046E-001   9.81488158E-001
   1.70000000E+002   9.83406982E-001   6.97448426E-001   9.83277166E-001
   1.75000000E+002   9.85014957E-001   6.97445377E-001   9.84902266E-001
   1.80000000E+002   9.86442684E-001   6.97442798E-001   9.86344489E-001
   1.85000000E+002   9.87763134E-001   6.97440608E-001   9.87677261E-001
   1.90000000E+002   9.88969894E-001   6.97438741E-001   9.88894543E-001
   1.95000000E+002   9.90058791E-001   6.97437142E-001   9.89992458E-001
   2.00000000E+002   9.91050366E-001   6.97435769E-001   9.90991790E-001
   2.05000000E+002   9.91960833E-001   6.97434585E-001   9.91908957E-001
   2.10000000E+002   9.92763256E-001   6.97433561E-001   9.92717184E-001
   2.15000000E+002   9.93527935E-001   6.97432671E-001   9.93486906E-001
   2.20000000E+002   9.94223675E-001   6.97431897E-001   9.94187045E-001
   2.25000000E+002   9.94824072E-001   6.97431221E-001   9.94791288E-001
   2.30000000E+002   9.95434486E-001   6.97430629E-001   9.95405075E-001
   2.35000000E+002   9.95943093E-001   6.97430109E-001   9.95916649E-001
   2.40000000E+002   9.96423443E-001   6.97429650E-001   9.96399614E-001
   2.45000000E+002   9.96862003E-001   6.97429246E-001   9.96840486E-001
