# ./jetvheto -in n3lo-fixed-order/H125-LHC13-R04-mb-475-mt-1725-xmur100-xmuf100-log.fxd -xQ 0.25 -out benchmarks-n3lo-smallR/H125-LHC13-R04-mb-475-mt-1725-xmur100-xmuf100-xQ025-NNLO+NNLLa.res -scheme a -order 2 -ptmax 500.01 -fixed_order 2 -loop-mass t+b
# process = H    
# collider = pp   
# rts =  13000.000
# M   =    125.000
# muR =    125.000
# muF =    125.000
# Q   =     31.250
# p   =      5.000
# include_c1_squared =   F
# loop_mass  = t+b 
# alphas(MZ) =    0.11800
# alphas(M) =    0.11264
# alphas(muR) =    0.11264
# Rjet =      0.400
# order = NNLL
# pdf name and set = PDF4LHC15_nnlo_mc.LHgrid,    0
# matching scheme = a
# total cross sections [nb] at LO, NLOdiff, NNLOdiff, N3LOdiff =     0.012292    0.016994    0.010146    0.003834
#----------------------------------------------------------------------
# the lines that follow give the jet-veto efficiencies as a function of pt
#         pt            matched eff      resummed eff     fixed-order eff
   2.00000000E+001   4.77028217E-001   5.20360737E-001   4.93150502E-001
   2.50000000E+001   5.64055951E-001   5.90697112E-001   5.75024850E-001
   3.00000000E+001   6.31488312E-001   6.32059570E-001   6.38301171E-001
   3.50000000E+001   6.84664965E-001   6.54564396E-001   6.88801162E-001
   4.00000000E+001   7.27257810E-001   6.66384107E-001   7.29800784E-001
   4.50000000E+001   7.62111125E-001   6.72629997E-001   7.63713984E-001
   5.00000000E+001   7.91115577E-001   6.76031993E-001   7.92155543E-001
   5.50000000E+001   8.15474252E-001   6.77959477E-001   8.16168137E-001
   6.00000000E+001   8.36322060E-001   6.79096519E-001   8.36797648E-001
   6.50000000E+001   8.54250288E-001   6.79793155E-001   8.54584097E-001
   7.00000000E+001   8.69726305E-001   6.80234844E-001   8.69965602E-001
   7.50000000E+001   8.83179680E-001   6.80523582E-001   8.83354565E-001
   8.00000000E+001   8.95020357E-001   6.80717533E-001   8.95150407E-001
   8.50000000E+001   9.05348308E-001   6.80850999E-001   9.05446499E-001
   9.00000000E+001   9.14555672E-001   6.80944843E-001   9.14630889E-001
   9.50000000E+001   9.22650441E-001   6.81012112E-001   9.22708788E-001
   1.00000000E+002   9.29847438E-001   6.81061176E-001   9.29893229E-001
   1.05000000E+002   9.36294736E-001   6.81097526E-001   9.36331059E-001
   1.10000000E+002   9.41979314E-001   6.81124842E-001   9.42008406E-001
   1.15000000E+002   9.47132433E-001   6.81145637E-001   9.47155949E-001
   1.20000000E+002   9.51690560E-001   6.81161656E-001   9.51709725E-001
   1.25000000E+002   9.55861895E-001   6.81174130E-001   9.55877636E-001
   1.30000000E+002   9.59607719E-001   6.81183942E-001   9.59620741E-001
   1.35000000E+002   9.63010917E-001   6.81191730E-001   9.63021762E-001
   1.40000000E+002   9.66059612E-001   6.81197966E-001   9.66068699E-001
   1.45000000E+002   9.68879208E-001   6.81202999E-001   9.68886869E-001
   1.50000000E+002   9.71392704E-001   6.81207091E-001   9.71399196E-001
   1.55000000E+002   9.73716420E-001   6.81210440E-001   9.73721950E-001
   1.60000000E+002   9.75817872E-001   6.81213200E-001   9.75822606E-001
   1.65000000E+002   9.77737158E-001   6.81215488E-001   9.77741229E-001
   1.70000000E+002   9.79497508E-001   6.81217396E-001   9.79501024E-001
   1.75000000E+002   9.81086839E-001   6.81218994E-001   9.81089888E-001
   1.80000000E+002   9.82549638E-001   6.81220341E-001   9.82552292E-001
   1.85000000E+002   9.83885225E-001   6.81221481E-001   9.83887543E-001
   1.90000000E+002   9.85114455E-001   6.81222450E-001   9.85116487E-001
   1.95000000E+002   9.86261446E-001   6.81223278E-001   9.86263234E-001
   2.00000000E+002   9.87299356E-001   6.81223987E-001   9.87300933E-001
   2.05000000E+002   9.88263662E-001   6.81224598E-001   9.88265058E-001
   2.10000000E+002   9.89143351E-001   6.81225125E-001   9.89144590E-001
   2.15000000E+002   9.89935985E-001   6.81225583E-001   9.89937088E-001
   2.20000000E+002   9.90683931E-001   6.81225980E-001   9.90684915E-001
   2.25000000E+002   9.91367883E-001   6.81226327E-001   9.91368764E-001
   2.30000000E+002   9.91998511E-001   6.81226631E-001   9.91999301E-001
   2.35000000E+002   9.92588437E-001   6.81226898E-001   9.92589146E-001
   2.40000000E+002   9.93118145E-001   6.81227132E-001   9.93118784E-001
   2.45000000E+002   9.93620470E-001   6.81227339E-001   9.93621047E-001
