# ./jetvheto -in n3lo-fixed-order/H125-LHC13-R04-heft-xmur050-xmuf050-log.fxd -xQ 0.50 -out benchmarks-n3lo-smallR/H125-LHC13-R04-heft-xmur050-xmuf050-xQ050-N3LO+NNLLa.res -scheme a -order 2 -ptmax 500.01 -fixed_order 3
# process = H    
# collider = pp   
# rts =  13000.000
# M   =    125.000
# muR =     62.500
# muF =     62.500
# Q   =     62.500
# p   =      5.000
# include_c1_squared =   F
# loop_mass  = none
# alphas(MZ) =    0.11800
# alphas(M) =    0.11264
# alphas(muR) =    0.12516
# Rjet =      0.400
# order = NNLL
# pdf name and set = PDF4LHC15_nnlo_mc.LHgrid,    0
# matching scheme = a
# total cross sections [nb] at LO, NLOdiff, NNLOdiff, N3LOdiff =     0.015055    0.019611    0.008998    0.001413
#----------------------------------------------------------------------
# the lines that follow give the jet-veto efficiencies as a function of pt
#         pt            matched eff      resummed eff     fixed-order eff
   2.00000000E+001   4.55099426E-001   4.93920394E-001   4.50065620E-001
   2.50000000E+001   5.41591658E-001   5.72857888E-001   5.35117843E-001
   3.00000000E+001   6.14177633E-001   6.28690355E-001   6.07875407E-001
   3.50000000E+001   6.71613682E-001   6.67694808E-001   6.65471707E-001
   4.00000000E+001   7.16111834E-001   6.94447215E-001   7.10255567E-001
   4.50000000E+001   7.54621505E-001   7.12322365E-001   7.49462038E-001
   5.00000000E+001   7.85304028E-001   7.23895588E-001   7.80889863E-001
   5.50000000E+001   8.11886533E-001   7.31149275E-001   8.08255100E-001
   6.00000000E+001   8.33579693E-001   7.35569934E-001   8.30655804E-001
   6.50000000E+001   8.53666510E-001   7.38211621E-001   8.51359759E-001
   7.00000000E+001   8.69211268E-001   7.39777662E-001   8.67401068E-001
   7.50000000E+001   8.83132436E-001   7.40709829E-001   8.81721105E-001
   8.00000000E+001   8.95730971E-001   7.41272742E-001   8.94630807E-001
   8.50000000E+001   9.06935824E-001   7.41620108E-001   9.06075690E-001
   9.00000000E+001   9.16870207E-001   7.41840255E-001   9.16194285E-001
   9.50000000E+001   9.24837342E-001   7.41983828E-001   9.24302841E-001
   1.00000000E+002   9.32394770E-001   7.42080173E-001   9.31969203E-001
   1.05000000E+002   9.38455260E-001   7.42146612E-001   9.38114001E-001
   1.10000000E+002   9.44055400E-001   7.42193596E-001   9.43779750E-001
   1.15000000E+002   9.49327158E-001   7.42227591E-001   9.49102964E-001
   1.20000000E+002   9.54088881E-001   7.42252696E-001   9.53905269E-001
   1.25000000E+002   9.58019757E-001   7.42271575E-001   9.57868349E-001
   1.30000000E+002   9.61458882E-001   7.42286003E-001   9.61333266E-001
   1.35000000E+002   9.64902763E-001   7.42297188E-001   9.64797911E-001
   1.40000000E+002   9.68022240E-001   7.42305969E-001   9.67934219E-001
   1.45000000E+002   9.70698013E-001   7.42312942E-001   9.70623723E-001
   1.50000000E+002   9.72788429E-001   7.42318535E-001   9.72725389E-001
   1.55000000E+002   9.75181525E-001   7.42323064E-001   9.75127782E-001
   1.60000000E+002   9.77349303E-001   7.42326760E-001   9.77303274E-001
   1.65000000E+002   9.78675093E-001   7.42329800E-001   9.78635491E-001
   1.70000000E+002   9.80402084E-001   7.42332319E-001   9.80367872E-001
   1.75000000E+002   9.82020094E-001   7.42334418E-001   9.81990419E-001
   1.80000000E+002   9.83266371E-001   7.42336178E-001   9.83240537E-001
   1.85000000E+002   9.84406756E-001   7.42337661E-001   9.84384183E-001
   1.90000000E+002   9.85584216E-001   7.42338919E-001   9.85564426E-001
   1.95000000E+002   9.86669866E-001   7.42339989E-001   9.86652461E-001
   2.00000000E+002   9.87639023E-001   7.42340905E-001   9.87623667E-001
   2.05000000E+002   9.88425186E-001   7.42341691E-001   9.88411596E-001
   2.10000000E+002   9.89222642E-001   7.42342369E-001   9.89210583E-001
   2.15000000E+002   9.89843952E-001   7.42342955E-001   9.89833220E-001
   2.20000000E+002   9.90718273E-001   7.42343465E-001   9.90708699E-001
   2.25000000E+002   9.91196469E-001   7.42343909E-001   9.91187907E-001
   2.30000000E+002   9.91776222E-001   7.42344297E-001   9.91768546E-001
   2.35000000E+002   9.92220106E-001   7.42344637E-001   9.92213208E-001
   2.40000000E+002   9.92696756E-001   7.42344937E-001   9.92690544E-001
   2.45000000E+002   9.93248388E-001   7.42345201E-001   9.93242783E-001
