# ./jetvheto -in n3lo-fixed-order/H125-LHC13-R04-mb-0-mt-1725-xmur100-xmuf100-log.fxd -xQ 0.25 -out benchmarks-n3lo-smallR/H125-LHC13-R04-mb-0-mt-1725-xmur100-xmuf100-xQ025-NNLO+NNLLa.R0-0.5.res -scheme a -order 2 -ptmax 500.01 -small-r -fixed_order 2 -loop-mass t -R0 0.5
# process = H    
# collider = pp   
# rts =  13000.000
# M   =    125.000
# muR =    125.000
# muF =    125.000
# Q   =     31.250
# p   =      5.000
# include_c1_squared =   F
# loop_mass  = t   
# alphas(MZ) =    0.11800
# alphas(M) =    0.11264
# alphas(muR) =    0.11264
# Rjet =      0.400
# order = NNLL
# pdf name and set = PDF4LHC15_nnlo_mc.LHgrid,    0
# matching scheme = a
# total cross sections [nb] at LO, NLOdiff, NNLOdiff, N3LOdiff =     0.013801    0.017514    0.010146    0.003834
#----------------------------------------------------------------------
# the lines that follow give the jet-veto efficiencies as a function of pt
#         pt            matched eff      resummed eff     fixed-order eff
   2.00000000E+001   4.96834696E-001   5.42359459E-001   5.12111256E-001
   2.50000000E+001   5.82928609E-001   6.15688582E-001   5.93117916E-001
   3.00000000E+001   6.48914918E-001   6.58815570E-001   6.55183932E-001
   3.50000000E+001   7.00519060E-001   6.82282301E-001   7.04312652E-001
   4.00000000E+001   7.41780191E-001   6.94607840E-001   7.44112204E-001
   4.50000000E+001   7.75269608E-001   7.01121222E-001   7.76741158E-001
   5.00000000E+001   8.03043559E-001   7.04668976E-001   8.03999724E-001
   5.50000000E+001   8.26317617E-001   7.06679062E-001   8.26956486E-001
   6.00000000E+001   8.46143973E-001   7.07864840E-001   8.46582419E-001
   6.50000000E+001   8.63141541E-001   7.08591337E-001   8.63449624E-001
   7.00000000E+001   8.77731858E-001   7.09051960E-001   8.77952928E-001
   7.50000000E+001   8.90495943E-001   7.09353076E-001   8.90657633E-001
   8.00000000E+001   9.01664267E-001   7.09555342E-001   9.01784587E-001
   8.50000000E+001   9.11407585E-001   7.09694530E-001   9.11498483E-001
   9.00000000E+001   9.20028160E-001   7.09792397E-001   9.20097826E-001
   9.50000000E+001   9.27612306E-001   7.09862550E-001   9.27666371E-001
   1.00000000E+002   9.34374599E-001   7.09913717E-001   9.34417045E-001
   1.05000000E+002   9.40400440E-001   7.09951626E-001   9.40434122E-001
   1.10000000E+002   9.45722006E-001   7.09980113E-001   9.45748990E-001
   1.15000000E+002   9.50547536E-001   7.10001799E-001   9.50569353E-001
   1.20000000E+002   9.54849578E-001   7.10018505E-001   9.54867362E-001
   1.25000000E+002   9.58738884E-001   7.10031514E-001   9.58753493E-001
   1.30000000E+002   9.62255805E-001   7.10041746E-001   9.62267892E-001
   1.35000000E+002   9.65419350E-001   7.10049869E-001   9.65429419E-001
   1.40000000E+002   9.68279543E-001   7.10056372E-001   9.68287981E-001
   1.45000000E+002   9.70908845E-001   7.10061621E-001   9.70915959E-001
   1.50000000E+002   9.73253547E-001   7.10065888E-001   9.73259576E-001
   1.55000000E+002   9.75421620E-001   7.10069381E-001   9.75426757E-001
   1.60000000E+002   9.77401193E-001   7.10072259E-001   9.77405590E-001
   1.65000000E+002   9.79192386E-001   7.10074645E-001   9.79196168E-001
   1.70000000E+002   9.80838451E-001   7.10076634E-001   9.80841717E-001
   1.75000000E+002   9.82317720E-001   7.10078302E-001   9.82320552E-001
   1.80000000E+002   9.83689862E-001   7.10079706E-001   9.83692327E-001
   1.85000000E+002   9.84934336E-001   7.10080895E-001   9.84936490E-001
   1.90000000E+002   9.86087142E-001   7.10081906E-001   9.86089030E-001
   1.95000000E+002   9.87153061E-001   7.10082769E-001   9.87154723E-001
   2.00000000E+002   9.88118648E-001   7.10083509E-001   9.88120114E-001
   2.05000000E+002   9.89020355E-001   7.10084146E-001   9.89021653E-001
   2.10000000E+002   9.89835232E-001   7.10084696E-001   9.89836384E-001
   2.15000000E+002   9.90578609E-001   7.10085173E-001   9.90579634E-001
   2.20000000E+002   9.91276227E-001   7.10085587E-001   9.91277142E-001
   2.25000000E+002   9.91914317E-001   7.10085949E-001   9.91915136E-001
   2.30000000E+002   9.92505197E-001   7.10086266E-001   9.92505931E-001
   2.35000000E+002   9.93059520E-001   7.10086544E-001   9.93060180E-001
   2.40000000E+002   9.93556744E-001   7.10086788E-001   9.93557338E-001
   2.45000000E+002   9.94024571E-001   7.10087004E-001   9.94025107E-001
