# ./jetvheto -in n3lo-fixed-order/H125-LHC13-R04-mb-0-mt-1725-xmur050-xmuf050-log.fxd -xQ 0.75 -out benchmarks-n3lo-smallR/H125-LHC13-R04-mb-0-mt-1725-xmur050-xmuf050-xQ075-NNLO+NNLLa.R0-1.0.res -scheme a -order 2 -ptmax 500.01 -small-r -fixed_order 2 -loop-mass t -R0 1.0
# process = H    
# collider = pp   
# rts =  13000.000
# M   =    125.000
# muR =     62.500
# muF =     62.500
# Q   =     93.750
# p   =      5.000
# include_c1_squared =   F
# loop_mass  = t   
# alphas(MZ) =    0.11800
# alphas(M) =    0.11264
# alphas(muR) =    0.12516
# Rjet =      0.400
# order = NNLL
# pdf name and set = PDF4LHC15_nnlo_mc.LHgrid,    0
# matching scheme = a
# total cross sections [nb] at LO, NLOdiff, NNLOdiff, N3LOdiff =     0.015885    0.020561    0.008998    0.001413
#----------------------------------------------------------------------
# the lines that follow give the jet-veto efficiencies as a function of pt
#         pt            matched eff      resummed eff     fixed-order eff
   2.00000000E+001   5.12401861E-001   5.51725267E-001   4.69057413E-001
   2.50000000E+001   5.99934767E-001   6.31294309E-001   5.55288671E-001
   3.00000000E+001   6.67667927E-001   6.86852930E-001   6.22338019E-001
   3.50000000E+001   7.20899278E-001   7.25340683E-001   6.75875821E-001
   4.00000000E+001   7.63098133E-001   7.51541382E-001   7.19396295E-001
   4.50000000E+001   7.96888591E-001   7.68810474E-001   7.55344248E-001
   5.00000000E+001   8.24468609E-001   7.79547012E-001   7.85683467E-001
   5.50000000E+001   8.46605159E-001   7.85518395E-001   8.11020538E-001
   6.00000000E+001   8.64918115E-001   7.88046893E-001   8.32757246E-001
   6.50000000E+001   8.80158770E-001   7.88153420E-001   8.51501964E-001
   7.00000000E+001   8.92934808E-001   7.86637515E-001   8.67734675E-001
   7.50000000E+001   9.03657241E-001   7.84123425E-001   8.81763053E-001
   8.00000000E+001   9.12913242E-001   7.81089680E-001   8.94087077E-001
   8.50000000E+001   9.20994234E-001   7.77887191E-001   9.04946611E-001
   9.00000000E+001   9.28101509E-001   7.74757034E-001   9.14517318E-001
   9.50000000E+001   9.34340500E-001   7.71848166E-001   9.22903074E-001
   1.00000000E+002   9.40038376E-001   7.69239717E-001   9.30440166E-001
   1.05000000E+002   9.45073132E-001   7.66960092E-001   9.37035250E-001
   1.10000000E+002   9.49664817E-001   7.65004434E-001   9.42936658E-001
   1.15000000E+002   9.53868232E-001   7.63348527E-001   9.48232561E-001
   1.20000000E+002   9.57726318E-001   7.61958846E-001   9.52998144E-001
   1.25000000E+002   9.61302569E-001   7.60799097E-001   9.57326460E-001
   1.30000000E+002   9.64501216E-001   7.59834318E-001   9.61148649E-001
   1.35000000E+002   9.67437681E-001   7.59032774E-001   9.64601780E-001
   1.40000000E+002   9.70158127E-001   7.58366737E-001   9.67750932E-001
   1.45000000E+002   9.72663260E-001   7.57812619E-001   9.70612637E-001
   1.50000000E+002   9.74985900E-001   7.57350691E-001   9.73232562E-001
   1.55000000E+002   9.77091578E-001   7.56964627E-001   9.75586996E-001
   1.60000000E+002   9.79023068E-001   7.56641019E-001   9.77727247E-001
   1.65000000E+002   9.80780886E-001   7.56368892E-001   9.79660891E-001
   1.70000000E+002   9.82411060E-001   7.56139286E-001   9.81439603E-001
   1.75000000E+002   9.83899162E-001   7.55944889E-001   9.83053670E-001
   1.80000000E+002   9.85245788E-001   7.55779726E-001   9.84507522E-001
   1.85000000E+002   9.86501005E-001   7.55638915E-001   9.85854277E-001
   1.90000000E+002   9.87653710E-001   7.55518451E-001   9.87085413E-001
   1.95000000E+002   9.88709177E-001   7.55415046E-001   9.88208314E-001
   2.00000000E+002   9.89678675E-001   7.55325989E-001   9.89235973E-001
   2.05000000E+002   9.90570140E-001   7.55249043E-001   9.90177759E-001
   2.10000000E+002   9.91369972E-001   7.55182352E-001   9.91021276E-001
   2.15000000E+002   9.92130325E-001   7.55124373E-001   9.91819641E-001
   2.20000000E+002   9.92826562E-001   7.55073820E-001   9.92549062E-001
   2.25000000E+002   9.93445191E-001   7.55029615E-001   9.93196753E-001
   2.30000000E+002   9.94056044E-001   7.54990855E-001   9.93833097E-001
   2.35000000E+002   9.94580862E-001   7.54956778E-001   9.94380362E-001
   2.40000000E+002   9.95078600E-001   7.54926741E-001   9.94897900E-001
   2.45000000E+002   9.95534393E-001   7.54900200E-001   9.95371206E-001
