# ./jetvheto -in n3lo-fixed-order/H125-LHC13-R04-mb-475-mt-1725-xmur050-xmuf050-log.fxd -xQ 0.333 -out benchmarks-n3lo-smallR/H125-LHC13-R04-mb-475-mt-1725-xmur050-xmuf050-xQ033-N3LO+NNLLb.res -scheme b -order 2 -ptmax 500.01 -fixed_order 3 -loop-mass t+b
# process = H    
# collider = pp   
# rts =  13000.000
# M   =    125.000
# muR =     62.500
# muF =     62.500
# Q   =     41.625
# p   =      5.000
# include_c1_squared =   F
# loop_mass  = t+b 
# alphas(MZ) =    0.11800
# alphas(M) =    0.11264
# alphas(muR) =    0.12516
# Rjet =      0.400
# order = NNLL
# pdf name and set = PDF4LHC15_nnlo_mc.LHgrid,    0
# matching scheme = b
# total cross sections [nb] at LO, NLOdiff, NNLOdiff, N3LOdiff =     0.014147    0.020254    0.008998    0.001413
#----------------------------------------------------------------------
# the lines that follow give the jet-veto efficiencies as a function of pt
#         pt            matched eff      resummed eff     fixed-order eff
   2.00000000E+001   4.30113114E-001   4.64531473E-001   4.22880362E-001
   2.50000000E+001   5.16408015E-001   5.37841090E-001   5.10871357E-001
   3.00000000E+001   5.90116086E-001   5.87550518E-001   5.86554172E-001
   3.50000000E+001   6.49395189E-001   6.19819834E-001   6.46974526E-001
   4.00000000E+001   6.95799360E-001   6.39890521E-001   6.94053894E-001
   4.50000000E+001   7.36739613E-001   6.52003341E-001   7.35572065E-001
   5.00000000E+001   7.69794483E-001   6.59235377E-001   7.68984657E-001
   5.50000000E+001   7.98626458E-001   6.63583699E-001   7.98072300E-001
   6.00000000E+001   8.22448537E-001   6.66246917E-001   8.22057983E-001
   6.50000000E+001   8.44432259E-001   6.67917925E-001   8.44160448E-001
   7.00000000E+001   8.61597087E-001   6.68993747E-001   8.61397413E-001
   7.50000000E+001   8.76936911E-001   6.69704133E-001   8.76789719E-001
   8.00000000E+001   8.90801419E-001   6.70184538E-001   8.90691953E-001
   8.50000000E+001   9.03132849E-001   6.70516656E-001   9.03050366E-001
   9.00000000E+001   9.13959480E-001   6.70750932E-001   9.13896477E-001
   9.50000000E+001   9.22688883E-001   6.70919252E-001   9.22639584E-001
   1.00000000E+002   9.30962782E-001   6.71042223E-001   9.30924075E-001
   1.05000000E+002   9.37649943E-001   6.71133441E-001   9.37618957E-001
   1.10000000E+002   9.43745878E-001   6.71202052E-001   9.43720915E-001
   1.15000000E+002   9.49522279E-001   6.71254319E-001   9.49502090E-001
   1.20000000E+002   9.54695328E-001   6.71294603E-001   9.54678868E-001
   1.25000000E+002   9.59017409E-001   6.71325986E-001   9.59003817E-001
   1.30000000E+002   9.62775416E-001   6.71350678E-001   9.62764111E-001
   1.35000000E+002   9.66499877E-001   6.71370284E-001   9.66490458E-001
   1.40000000E+002   9.69888594E-001   6.71385985E-001   9.69880698E-001
   1.45000000E+002   9.72814027E-001   6.71398659E-001   9.72807360E-001
   1.50000000E+002   9.75108594E-001   6.71408964E-001   9.75102905E-001
   1.55000000E+002   9.77713609E-001   6.71417401E-001   9.77708768E-001
   1.60000000E+002   9.80042932E-001   6.71424353E-001   9.80038790E-001
   1.65000000E+002   9.81494200E-001   6.71430117E-001   9.81490611E-001
   1.70000000E+002   9.83327418E-001   6.71434922E-001   9.83324317E-001
   1.75000000E+002   9.85051983E-001   6.71438950E-001   9.85049293E-001
   1.80000000E+002   9.86369912E-001   6.71442343E-001   9.86367565E-001
   1.85000000E+002   9.87586016E-001   6.71445215E-001   9.87583960E-001
   1.90000000E+002   9.88821673E-001   6.71447658E-001   9.88819869E-001
   1.95000000E+002   9.89959819E-001   6.71449743E-001   9.89958231E-001
   2.00000000E+002   9.90962811E-001   6.71451531E-001   9.90961409E-001
   2.05000000E+002   9.91763970E-001   6.71453070E-001   9.91762726E-001
   2.10000000E+002   9.92561984E-001   6.71454399E-001   9.92560879E-001
   2.15000000E+002   9.93189154E-001   6.71455551E-001   9.93188169E-001
   2.20000000E+002   9.94073314E-001   6.71456554E-001   9.94072436E-001
   2.25000000E+002   9.94534845E-001   6.71457428E-001   9.94534058E-001
   2.30000000E+002   9.95095404E-001   6.71458193E-001   9.95094697E-001
   2.35000000E+002   9.95513164E-001   6.71458865E-001   9.95512527E-001
   2.40000000E+002   9.95961209E-001   6.71459456E-001   9.95960635E-001
   2.45000000E+002   9.96475075E-001   6.71459978E-001   9.96474558E-001
