# ./jetvheto -in n3lo-fixed-order/H125-LHC13-R04-mb-0-mt-1725-xmur050-xmuf025-log.fxd -xQ 0.25 -out benchmarks-n3lo-smallR/H125-LHC13-R04-mb-0-mt-1725-xmur050-xmuf025-xQ025-NNLO+NNLLb.R0-2.0.res -scheme b -order 2 -ptmax 500.01 -small-r -fixed_order 2 -loop-mass t -R0 2.0
# process = H    
# collider = pp   
# rts =  13000.000
# M   =    125.000
# muR =     62.500
# muF =     31.250
# Q   =     31.250
# p   =      5.000
# include_c1_squared =   F
# loop_mass  = t   
# alphas(MZ) =    0.11800
# alphas(M) =    0.11264
# alphas(muR) =    0.12516
# Rjet =      0.400
# order = NNLL
# pdf name and set = PDF4LHC15_nnlo_mc.LHgrid,    0
# matching scheme = b
# total cross sections [nb] at LO, NLOdiff, NNLOdiff, N3LOdiff =     0.014513    0.020714    0.009723    0.001827
#----------------------------------------------------------------------
# the lines that follow give the jet-veto efficiencies as a function of pt
#         pt            matched eff      resummed eff     fixed-order eff
   2.00000000E+001   3.75772767E-001   4.88739404E-001   3.17487847E-001
   2.50000000E+001   4.57657640E-001   5.59055817E-001   4.26754407E-001
   3.00000000E+001   5.27831782E-001   6.01019653E-001   5.11966558E-001
   3.50000000E+001   5.88560390E-001   6.24091532E-001   5.80470117E-001
   4.00000000E+001   6.40581723E-001   6.36288784E-001   6.36364792E-001
   4.50000000E+001   6.84893549E-001   6.42759125E-001   6.82611528E-001
   5.00000000E+001   7.22831053E-001   6.46291173E-001   7.21540031E-001
   5.50000000E+001   7.55206596E-001   6.48294883E-001   7.54444177E-001
   6.00000000E+001   7.83103378E-001   6.49477775E-001   7.82634803E-001
   6.50000000E+001   8.07276276E-001   6.50202830E-001   8.06977613E-001
   7.00000000E+001   8.28325470E-001   6.50662668E-001   8.28128874E-001
   7.50000000E+001   8.46521336E-001   6.50963326E-001   8.46387939E-001
   8.00000000E+001   8.62659081E-001   6.51165308E-001   8.62566302E-001
   8.50000000E+001   8.76771871E-001   6.51304311E-001   8.76705809E-001
   9.00000000E+001   8.89294160E-001   6.51402055E-001   8.89246129E-001
   9.50000000E+001   9.00276720E-001   6.51472122E-001   9.00241110E-001
   1.00000000E+002   9.10116604E-001   6.51523228E-001   9.10089763E-001
   1.05000000E+002   9.18919211E-001   6.51561092E-001   9.18898671E-001
   1.10000000E+002   9.26725650E-001   6.51589547E-001   9.26709709E-001
   1.15000000E+002   9.33794470E-001   6.51611208E-001   9.33781944E-001
   1.20000000E+002   9.40129510E-001   6.51627895E-001   9.40119549E-001
   1.25000000E+002   9.45741719E-001   6.51640889E-001   9.45733708E-001
   1.30000000E+002   9.50855359E-001   6.51651110E-001   9.50848857E-001
   1.35000000E+002   9.55457968E-001   6.51659223E-001   9.55452646E-001
   1.40000000E+002   9.59633926E-001   6.51665719E-001   9.59629530E-001
   1.45000000E+002   9.63458046E-001   6.51670962E-001   9.63454390E-001
   1.50000000E+002   9.66879169E-001   6.51675224E-001   9.66876104E-001
   1.55000000E+002   9.69989343E-001   6.51678714E-001   9.69986758E-001
   1.60000000E+002   9.72840209E-001   6.51681589E-001   9.72838016E-001
   1.65000000E+002   9.75433063E-001   6.51683972E-001   9.75431192E-001
   1.70000000E+002   9.77762093E-001   6.51685959E-001   9.77760487E-001
   1.75000000E+002   9.79890992E-001   6.51687625E-001   9.79889608E-001
   1.80000000E+002   9.81838972E-001   6.51689027E-001   9.81837773E-001
   1.85000000E+002   9.83600990E-001   6.51690215E-001   9.83599946E-001
   1.90000000E+002   9.85233563E-001   6.51691225E-001   9.85232651E-001
   1.95000000E+002   9.86736942E-001   6.51692087E-001   9.86736143E-001
   2.00000000E+002   9.88086678E-001   6.51692826E-001   9.88085975E-001
   2.05000000E+002   9.89343290E-001   6.51693462E-001   9.89342669E-001
   2.10000000E+002   9.90502545E-001   6.51694011E-001   9.90501995E-001
   2.15000000E+002   9.91508712E-001   6.51694488E-001   9.91508223E-001
   2.20000000E+002   9.92461819E-001   6.51694902E-001   9.92461383E-001
   2.25000000E+002   9.93347126E-001   6.51695264E-001   9.93346737E-001
   2.30000000E+002   9.94132783E-001   6.51695580E-001   9.94132434E-001
   2.35000000E+002   9.94850455E-001   6.51695858E-001   9.94850142E-001
   2.40000000E+002   9.95497023E-001   6.51696102E-001   9.95496740E-001
   2.45000000E+002   9.96106691E-001   6.51696318E-001   9.96106437E-001
