# ./jetvheto -in n3lo-fixed-order/H125-LHC13-R04-mb-0-mt-1725-xmur050-xmuf050-log.fxd -xQ 0.5 -out benchmarks-n3lo-smallR/H125-LHC13-R04-mb-0-mt-1725-xmur050-xmuf050-xQ050-N3LO+NNLLb.R0-2.0.res -scheme b -order 2 -ptmax 500.01 -small-r -fixed_order 3 -loop-mass t -R0 2.0
# process = H    
# collider = pp   
# rts =  13000.000
# M   =    125.000
# muR =     62.500
# muF =     62.500
# Q   =     62.500
# p   =      5.000
# include_c1_squared =   F
# loop_mass  = t   
# alphas(MZ) =    0.11800
# alphas(M) =    0.11264
# alphas(muR) =    0.12516
# Rjet =      0.400
# order = NNLL
# pdf name and set = PDF4LHC15_nnlo_mc.LHgrid,    0
# matching scheme = b
# total cross sections [nb] at LO, NLOdiff, NNLOdiff, N3LOdiff =     0.015885    0.020561    0.008998    0.001413
#----------------------------------------------------------------------
# the lines that follow give the jet-veto efficiencies as a function of pt
#         pt            matched eff      resummed eff     fixed-order eff
   2.00000000E+001   4.72021507E-001   5.16774156E-001   4.41643521E-001
   2.50000000E+001   5.54157465E-001   5.91197364E-001   5.29528045E-001
   3.00000000E+001   6.23300234E-001   6.43540171E-001   6.04131024E-001
   3.50000000E+001   6.78460916E-001   6.79916009E-001   6.63337130E-001
   4.00000000E+001   7.21333188E-001   7.04713444E-001   7.09302441E-001
   4.50000000E+001   7.58751013E-001   7.21149583E-001   7.49371437E-001
   5.00000000E+001   7.88986431E-001   7.31675177E-001   7.81702411E-001
   5.50000000E+001   8.15054649E-001   7.38174717E-001   8.09465789E-001
   6.00000000E+001   8.36649339E-001   7.42057787E-001   8.32379427E-001
   6.50000000E+001   8.56751990E-001   7.44318728E-001   8.53504482E-001
   7.00000000E+001   8.72331826E-001   7.45615701E-001   8.69854849E-001
   7.50000000E+001   8.86333560E-001   7.46357320E-001   8.84440584E-001
   8.00000000E+001   8.99037669E-001   7.46784517E-001   8.97583035E-001
   8.50000000E+001   9.10358836E-001   7.47034399E-001   9.09233323E-001
   9.00000000E+001   9.20380378E-001   7.47183814E-001   9.19502663E-001
   9.50000000E+001   9.28418205E-001   7.47275494E-001   9.27728280E-001
   1.00000000E+002   9.36110163E-001   7.47333332E-001   9.35563225E-001
   1.05000000E+002   9.42225404E-001   7.47370868E-001   9.41788367E-001
   1.10000000E+002   9.47855133E-001   7.47395920E-001   9.47503067E-001
   1.15000000E+002   9.53188785E-001   7.47413091E-001   9.52903001E-001
   1.20000000E+002   9.58000091E-001   7.47425161E-001   9.57766396E-001
   1.25000000E+002   9.62014227E-001   7.47433844E-001   9.61821780E-001
   1.30000000E+002   9.65480363E-001   7.47440222E-001   9.65320871E-001
   1.35000000E+002   9.68922945E-001   7.47445000E-001   9.68789919E-001
   1.40000000E+002   9.72062957E-001   7.47448639E-001   9.71951352E-001
   1.45000000E+002   9.74797031E-001   7.47451455E-001   9.74702884E-001
   1.50000000E+002   9.76934293E-001   7.47453663E-001   9.76854447E-001
   1.55000000E+002   9.79357654E-001   7.47455417E-001   9.79289601E-001
   1.60000000E+002   9.81528953E-001   7.47456825E-001   9.81470679E-001
   1.65000000E+002   9.82867036E-001   7.47457967E-001   9.82816919E-001
   1.70000000E+002   9.84590736E-001   7.47458902E-001   9.84547446E-001
   1.75000000E+002   9.86180070E-001   7.47459672E-001   9.86142527E-001
   1.80000000E+002   9.87398307E-001   7.47460313E-001   9.87365627E-001
   1.85000000E+002   9.88518119E-001   7.47460849E-001   9.88489569E-001
   1.90000000E+002   9.89664830E-001   7.47461300E-001   9.89639801E-001
   1.95000000E+002   9.90723735E-001   7.47461681E-001   9.90701722E-001
   2.00000000E+002   9.91659952E-001   7.47462006E-001   9.91640532E-001
   2.05000000E+002   9.92398457E-001   7.47462284E-001   9.92381271E-001
   2.10000000E+002   9.93139605E-001   7.47462523E-001   9.93124356E-001
   2.15000000E+002   9.93715736E-001   7.47462729E-001   9.93702166E-001
   2.20000000E+002   9.94536076E-001   7.47462907E-001   9.94523970E-001
   2.25000000E+002   9.94962042E-001   7.47463062E-001   9.94951215E-001
   2.30000000E+002   9.95486430E-001   7.47463197E-001   9.95476723E-001
   2.35000000E+002   9.95868241E-001   7.47463316E-001   9.95859519E-001
   2.40000000E+002   9.96284609E-001   7.47463419E-001   9.96276754E-001
   2.45000000E+002   9.96771568E-001   7.47463511E-001   9.96764480E-001
