# ./jetvheto -in n3lo-fixed-order/H125-LHC13-R04-heft-xmur100-xmuf200-log.fxd -xQ 0.50 -out benchmarks-n3lo-smallR/H125-LHC13-R04-heft-xmur100-xmuf200-xQ050-N3LO+NNLLa.R0-0.5.res -scheme a -order 2 -ptmax 500.01 -fixed_order 3 -small-r -R0 0.5
# process = H    
# collider = pp   
# rts =  13000.000
# M   =    125.000
# muR =    125.000
# muF =    250.000
# Q   =     62.500
# p   =      5.000
# include_c1_squared =   F
# loop_mass  = none
# alphas(MZ) =    0.11800
# alphas(M) =    0.11264
# alphas(muR) =    0.11264
# Rjet =      0.400
# order = NNLL
# pdf name and set = PDF4LHC15_nnlo_mc.LHgrid,    0
# matching scheme = a
# total cross sections [nb] at LO, NLOdiff, NNLOdiff, N3LOdiff =     0.013467    0.016878    0.009991    0.003297
#----------------------------------------------------------------------
# the lines that follow give the jet-veto efficiencies as a function of pt
#         pt            matched eff      resummed eff     fixed-order eff
   2.00000000E+001   4.57825593E-001   5.27849665E-001   4.53320057E-001
   2.50000000E+001   5.46534843E-001   6.09125253E-001   5.42970984E-001
   3.00000000E+001   6.15310271E-001   6.66204396E-001   6.11308774E-001
   3.50000000E+001   6.71652343E-001   7.05773571E-001   6.67398638E-001
   4.00000000E+001   7.17339305E-001   7.32659837E-001   7.13032843E-001
   4.50000000E+001   7.53689806E-001   7.50421735E-001   7.49551591E-001
   5.00000000E+001   7.85887508E-001   7.61758032E-001   7.82184597E-001
   5.50000000E+001   8.11520131E-001   7.68731106E-001   8.08329054E-001
   6.00000000E+001   8.33333173E-001   7.72876222E-001   8.30683668E-001
   6.50000000E+001   8.51657370E-001   7.75275275E-001   8.49512183E-001
   7.00000000E+001   8.68631134E-001   7.76641559E-001   8.66921638E-001
   7.50000000E+001   8.82365553E-001   7.77415997E-001   8.81016191E-001
   8.00000000E+001   8.94311022E-001   7.77857436E-001   8.93249479E-001
   8.50000000E+001   9.05064814E-001   7.78112589E-001   9.04229308E-001
   9.00000000E+001   9.14163812E-001   7.78263046E-001   9.13504110E-001
   9.50000000E+001   9.22912122E-001   7.78353893E-001   9.22388341E-001
   1.00000000E+002   9.30136945E-001   7.78410198E-001   9.29718901E-001
   1.05000000E+002   9.36450046E-001   7.78446073E-001   9.36114161E-001
   1.10000000E+002   9.41873001E-001   7.78469564E-001   9.41601357E-001
   1.15000000E+002   9.47141267E-001   7.78485363E-001   9.46919982E-001
   1.20000000E+002   9.51963094E-001   7.78496261E-001   9.51781598E-001
   1.25000000E+002   9.55824363E-001   7.78503962E-001   9.55674634E-001
   1.30000000E+002   9.59607792E-001   7.78509525E-001   9.59483452E-001
   1.35000000E+002   9.62774729E-001   7.78513627E-001   9.62670874E-001
   1.40000000E+002   9.66102445E-001   7.78516707E-001   9.66015171E-001
   1.45000000E+002   9.68596029E-001   7.78519060E-001   9.68522336E-001
   1.50000000E+002   9.71133940E-001   7.78520885E-001   9.71071374E-001
   1.55000000E+002   9.73382687E-001   7.78522319E-001   9.73329317E-001
   1.60000000E+002   9.75314943E-001   7.78523460E-001   9.75269207E-001
   1.65000000E+002   9.76950013E-001   7.78524379E-001   9.76910654E-001
   1.70000000E+002   9.78819784E-001   7.78525125E-001   9.78785757E-001
   1.75000000E+002   9.80281476E-001   7.78525737E-001   9.80251953E-001
   1.80000000E+002   9.81968699E-001   7.78526243E-001   9.81942976E-001
   1.85000000E+002   9.83060715E-001   7.78526664E-001   9.83038234E-001
   1.90000000E+002   9.84247692E-001   7.78527017E-001   9.84227973E-001
   1.95000000E+002   9.85286306E-001   7.78527315E-001   9.85268956E-001
   2.00000000E+002   9.86514275E-001   7.78527568E-001   9.86498957E-001
   2.05000000E+002   9.87265512E-001   7.78527783E-001   9.87251953E-001
   2.10000000E+002   9.87996858E-001   7.78527968E-001   9.87984821E-001
   2.15000000E+002   9.88847426E-001   7.78528127E-001   9.88836711E-001
   2.20000000E+002   9.89639681E-001   7.78528264E-001   9.89630117E-001
   2.25000000E+002   9.90220847E-001   7.78528384E-001   9.90212291E-001
   2.30000000E+002   9.90786920E-001   7.78528488E-001   9.90779246E-001
   2.35000000E+002   9.91401925E-001   7.78528578E-001   9.91395027E-001
   2.40000000E+002   9.91943534E-001   7.78528658E-001   9.91937321E-001
   2.45000000E+002   9.92468377E-001   7.78528728E-001   9.92462767E-001
