# ./jetvheto -in n3lo-fixed-order/H125-LHC13-R04-mb-475-mt-1725-xmur050-xmuf100-log.fxd -xQ 0.5 -out benchmarks-n3lo-smallR/H125-LHC13-R04-mb-475-mt-1725-xmur050-xmuf100-xQ050-NNLO+NNLLa.R0-1.0.res -scheme a -order 2 -ptmax 500.01 -fixed_order 2 -small-r -loop-mass t+b -R0 1.0
# process = H    
# collider = pp   
# rts =  13000.000
# M   =    125.000
# muR =     62.500
# muF =    125.000
# Q   =     62.500
# p   =      5.000
# include_c1_squared =   F
# loop_mass  = t+b 
# alphas(MZ) =    0.11800
# alphas(M) =    0.11264
# alphas(muR) =    0.12516
# Rjet =      0.400
# order = NNLL
# pdf name and set = PDF4LHC15_nnlo_mc.LHgrid,    0
# matching scheme = a
# total cross sections [nb] at LO, NLOdiff, NNLOdiff, N3LOdiff =     0.015023    0.020252    0.008553    0.000949
#----------------------------------------------------------------------
# the lines that follow give the jet-veto efficiencies as a function of pt
#         pt            matched eff      resummed eff     fixed-order eff
   2.00000000E+001   4.72784912E-001   4.90306468E-001   4.52947522E-001
   2.50000000E+001   5.59347104E-001   5.63033417E-001   5.40649579E-001
   3.00000000E+001   6.27361692E-001   6.13827421E-001   6.09146724E-001
   3.50000000E+001   6.81444674E-001   6.48852490E-001   6.64036606E-001
   4.00000000E+001   7.24764439E-001   6.72507320E-001   7.08772946E-001
   4.50000000E+001   7.59909009E-001   6.88022147E-001   7.45785109E-001
   5.00000000E+001   7.88846606E-001   6.97834833E-001   7.76823295E-001
   5.50000000E+001   8.12920248E-001   7.03797319E-001   8.03003904E-001
   6.00000000E+001   8.33478210E-001   7.07283171E-001   8.25500055E-001
   6.50000000E+001   8.51180248E-001   7.09256125E-001   8.44871993E-001
   7.00000000E+001   8.66524732E-001   7.10346723E-001   8.61589128E-001
   7.50000000E+001   8.79971663E-001   7.10941046E-001   8.76128533E-001
   8.00000000E+001   8.91904434E-001   7.11262944E-001   8.88912118E-001
   8.50000000E+001   9.02372362E-001   7.11437147E-001   9.00035777E-001
   9.00000000E+001   9.11789622E-001   7.11531628E-001   9.09955619E-001
   9.50000000E+001   9.20105415E-001   7.11582993E-001   9.18656833E-001
   1.00000000E+002   9.27530500E-001   7.11610911E-001   9.26378220E-001
   1.05000000E+002   9.34203221E-001   7.11625993E-001   9.33279806E-001
   1.10000000E+002   9.40100216E-001   7.11634005E-001   9.39354824E-001
   1.15000000E+002   9.45461402E-001   7.11638108E-001   9.44855267E-001
   1.20000000E+002   9.50207429E-001   7.11640054E-001   9.49711111E-001
   1.25000000E+002   9.54552733E-001   7.11640817E-001   9.54143526E-001
   1.30000000E+002   9.58454787E-001   7.11640945E-001   9.58115228E-001
   1.35000000E+002   9.62006698E-001   7.11640747E-001   9.61723200E-001
   1.40000000E+002   9.65170045E-001   7.11640393E-001   9.64931972E-001
   1.45000000E+002   9.68115441E-001   7.11639981E-001   9.67914407E-001
   1.50000000E+002   9.70719638E-001   7.11639562E-001   9.70548997E-001
   1.55000000E+002   9.73127606E-001   7.11639162E-001   9.72982040E-001
   1.60000000E+002   9.75314878E-001   7.11638793E-001   9.75190129E-001
   1.65000000E+002   9.77301120E-001   7.11638461E-001   9.77193733E-001
   1.70000000E+002   9.79128561E-001   7.11638166E-001   9.79035734E-001
   1.75000000E+002   9.80769062E-001   7.11637906E-001   9.80688502E-001
   1.80000000E+002   9.82283585E-001   7.11637677E-001   9.82213406E-001
   1.85000000E+002   9.83658834E-001   7.11637477E-001   9.83597479E-001
   1.90000000E+002   9.84927226E-001   7.11637303E-001   9.84873402E-001
   1.95000000E+002   9.86113410E-001   7.11637150E-001   9.86066038E-001
   2.00000000E+002   9.87181006E-001   7.11637016E-001   9.87139184E-001
   2.05000000E+002   9.88175479E-001   7.11636900E-001   9.88138448E-001
   2.10000000E+002   9.89078422E-001   7.11636797E-001   9.89045540E-001
   2.15000000E+002   9.89888151E-001   7.11636708E-001   9.89858874E-001
   2.20000000E+002   9.90656593E-001   7.11636629E-001   9.90630459E-001
   2.25000000E+002   9.91356847E-001   7.11636559E-001   9.91333461E-001
   2.30000000E+002   9.92002262E-001   7.11636498E-001   9.91981285E-001
   2.35000000E+002   9.92609675E-001   7.11636444E-001   9.92590817E-001
   2.40000000E+002   9.93149432E-001   7.11636396E-001   9.93132441E-001
   2.45000000E+002   9.93663213E-001   7.11636354E-001   9.93647873E-001
