# ./jetvheto -in n3lo-fixed-order/H125-LHC13-R04-mb-0-mt-1725-xmur100-xmuf100-log.fxd -xQ 0.125 -out benchmarks-n3lo-smallR/H125-LHC13-R04-mb-0-mt-1725-xmur100-xmuf100-xQ0125-N3LO+NNLLb.R0-0.5.res -scheme b -order 2 -ptmax 500.01 -small-r -fixed_order 3 -loop-mass t -R0 0.5
# process = H    
# collider = pp   
# rts =  13000.000
# M   =    125.000
# muR =    125.000
# muF =    125.000
# Q   =     15.625
# p   =      5.000
# include_c1_squared =   F
# loop_mass  = t   
# alphas(MZ) =    0.11800
# alphas(M) =    0.11264
# alphas(muR) =    0.11264
# Rjet =      0.400
# order = NNLL
# pdf name and set = PDF4LHC15_nnlo_mc.LHgrid,    0
# matching scheme = b
# total cross sections [nb] at LO, NLOdiff, NNLOdiff, N3LOdiff =     0.013801    0.017514    0.010146    0.003834
#----------------------------------------------------------------------
# the lines that follow give the jet-veto efficiencies as a function of pt
#         pt            matched eff      resummed eff     fixed-order eff
   2.00000000E+001   4.24994161E-001   5.18898285E-001   4.21593782E-001
   2.50000000E+001   5.14949492E-001   5.34719159E-001   5.13960990E-001
   3.00000000E+001   5.91312856E-001   5.39865228E-001   5.91015610E-001
   3.50000000E+001   6.50747081E-001   5.41792368E-001   6.50645918E-001
   4.00000000E+001   6.98873335E-001   5.42612144E-001   6.98836983E-001
   4.50000000E+001   7.37941379E-001   5.42998736E-001   7.37928057E-001
   5.00000000E+001   7.71034719E-001   5.43196721E-001   7.71030473E-001
   5.50000000E+001   7.99276267E-001   5.43305113E-001   7.99275639E-001
   6.00000000E+001   8.23059043E-001   5.43367800E-001   8.23059681E-001
   6.50000000E+001   8.44242632E-001   5.43405753E-001   8.44243758E-001
   7.00000000E+001   8.62069662E-001   5.43429640E-001   8.62070819E-001
   7.50000000E+001   8.76924457E-001   5.43445181E-001   8.76925464E-001
   8.00000000E+001   8.89966298E-001   5.43455587E-001   8.89967148E-001
   8.50000000E+001   9.01727770E-001   5.43462733E-001   9.01728487E-001
   9.00000000E+001   9.11747170E-001   5.43467750E-001   9.11747759E-001
   9.50000000E+001   9.20909123E-001   5.43471343E-001   9.20909613E-001
   1.00000000E+002   9.28579139E-001   5.43473961E-001   9.28579537E-001
   1.05000000E+002   9.35454299E-001   5.43475900E-001   9.35454626E-001
   1.10000000E+002   9.41628398E-001   5.43477356E-001   9.41628668E-001
   1.15000000E+002   9.47176909E-001   5.43478464E-001   9.47177133E-001
   1.20000000E+002   9.51996701E-001   5.43479318E-001   9.51996886E-001
   1.25000000E+002   9.56173780E-001   5.43479982E-001   9.56173934E-001
   1.30000000E+002   9.60356175E-001   5.43480505E-001   9.60356305E-001
   1.35000000E+002   9.64008330E-001   5.43480920E-001   9.64008440E-001
   1.40000000E+002   9.67091903E-001   5.43481252E-001   9.67091995E-001
   1.45000000E+002   9.70034820E-001   5.43481520E-001   9.70034899E-001
   1.50000000E+002   9.72527430E-001   5.43481738E-001   9.72527497E-001
   1.55000000E+002   9.75212397E-001   5.43481916E-001   9.75212455E-001
   1.60000000E+002   9.77041058E-001   5.43482063E-001   9.77041107E-001
   1.65000000E+002   9.78998008E-001   5.43482185E-001   9.78998050E-001
   1.70000000E+002   9.80709559E-001   5.43482287E-001   9.80709596E-001
   1.75000000E+002   9.82370591E-001   5.43482372E-001   9.82370623E-001
   1.80000000E+002   9.83895169E-001   5.43482443E-001   9.83895197E-001
   1.85000000E+002   9.85264498E-001   5.43482504E-001   9.85264523E-001
   1.90000000E+002   9.86225445E-001   5.43482556E-001   9.86225466E-001
   1.95000000E+002   9.87456477E-001   5.43482600E-001   9.87456496E-001
   2.00000000E+002   9.88501089E-001   5.43482637E-001   9.88501106E-001
   2.05000000E+002   9.89399951E-001   5.43482670E-001   9.89399966E-001
   2.10000000E+002   9.90204102E-001   5.43482698E-001   9.90204115E-001
   2.15000000E+002   9.91095707E-001   5.43482722E-001   9.91095719E-001
   2.20000000E+002   9.91741795E-001   5.43482744E-001   9.91741805E-001
   2.25000000E+002   9.92422300E-001   5.43482762E-001   9.92422310E-001
   2.30000000E+002   9.93056593E-001   5.43482778E-001   9.93056602E-001
   2.35000000E+002   9.93643495E-001   5.43482792E-001   9.93643503E-001
   2.40000000E+002   9.94041759E-001   5.43482805E-001   9.94041766E-001
   2.45000000E+002   9.94575387E-001   5.43482816E-001   9.94575393E-001
