# ./jetvheto -in n3lo-fixed-order/H125-LHC13-R04-mb-475-mt-1725-xmur050-xmuf050-log.fxd -xQ 0.75 -out benchmarks-n3lo-smallR/H125-LHC13-R04-mb-475-mt-1725-xmur050-xmuf050-xQ075-NNLO+NNLLa.R0-0.5.res -scheme a -order 2 -ptmax 500.01 -fixed_order 2 -small-r -loop-mass t+b -R0 0.5
# process = H    
# collider = pp   
# rts =  13000.000
# M   =    125.000
# muR =     62.500
# muF =     62.500
# Q   =     93.750
# p   =      5.000
# include_c1_squared =   F
# loop_mass  = t+b 
# alphas(MZ) =    0.11800
# alphas(M) =    0.11264
# alphas(muR) =    0.12516
# Rjet =      0.400
# order = NNLL
# pdf name and set = PDF4LHC15_nnlo_mc.LHgrid,    0
# matching scheme = a
# total cross sections [nb] at LO, NLOdiff, NNLOdiff, N3LOdiff =     0.014147    0.020254    0.008998    0.001413
#----------------------------------------------------------------------
# the lines that follow give the jet-veto efficiencies as a function of pt
#         pt            matched eff      resummed eff     fixed-order eff
   2.00000000E+001   4.80745895E-001   5.13404459E-001   4.51585809E-001
   2.50000000E+001   5.70782745E-001   5.91391352E-001   5.37845647E-001
   3.00000000E+001   6.41611864E-001   6.46094573E-001   6.05618957E-001
   3.50000000E+001   6.97861363E-001   6.84167418E-001   6.60103954E-001
   4.00000000E+001   7.42779361E-001   7.10238217E-001   7.04623301E-001
   4.50000000E+001   7.79236656E-001   7.27567467E-001   7.41826274E-001
   5.00000000E+001   8.08896671E-001   7.38491625E-001   7.73153273E-001
   5.50000000E+001   8.33109278E-001   7.44733622E-001   7.99700298E-001
   6.00000000E+001   8.53086371E-001   7.47583147E-001   8.22453602E-001
   6.50000000E+001   8.69668500E-001   7.48035864E-001   8.42063586E-001
   7.00000000E+001   8.83675837E-001   7.46871426E-001   8.59177351E-001
   7.50000000E+001   8.95426419E-001   7.44698726E-001   8.73986041E-001
   8.00000000E+001   9.05575729E-001   7.41985006E-001   8.87031290E-001
   8.50000000E+001   9.14444258E-001   7.39073763E-001   8.98561694E-001
   9.00000000E+001   9.22170666E-001   7.36202128E-001   9.08676257E-001
   9.50000000E+001   9.28983400E-001   7.33518073E-001   9.17587048E-001
   1.00000000E+002   9.35146208E-001   7.31101874E-001   9.25559652E-001
   1.05000000E+002   9.40686641E-001   7.28984514E-001   9.32641906E-001
   1.10000000E+002   9.45684164E-001   7.27164480E-001   9.38939368E-001
   1.15000000E+002   9.50268827E-001   7.25621155E-001   9.44611611E-001
   1.20000000E+002   9.54437249E-001   7.24324525E-001   9.49685968E-001
   1.25000000E+002   9.58295749E-001   7.23241512E-001   9.54296709E-001
   1.30000000E+002   9.61769780E-001   7.22339974E-001   9.58395322E-001
   1.35000000E+002   9.64961255E-001   7.21590582E-001   9.62105002E-001
   1.40000000E+002   9.67908149E-001   7.20967624E-001   9.65482383E-001
   1.45000000E+002   9.70591708E-001   7.20449175E-001   9.68524408E-001
   1.50000000E+002   9.73078604E-001   7.20016865E-001   9.71310382E-001
   1.55000000E+002   9.75349568E-001   7.19655478E-001   9.73831721E-001
   1.60000000E+002   9.77426594E-001   7.19352499E-001   9.76118993E-001
   1.65000000E+002   9.79316335E-001   7.19097682E-001   9.78185892E-001
   1.70000000E+002   9.81050749E-001   7.18882655E-001   9.80070053E-001
   1.75000000E+002   9.82668620E-001   7.18700583E-001   9.81814911E-001
   1.80000000E+002   9.84120367E-001   7.18545879E-001   9.83374805E-001
   1.85000000E+002   9.85477728E-001   7.18413974E-001   9.84824510E-001
   1.90000000E+002   9.86719208E-001   7.18301122E-001   9.86145135E-001
   1.95000000E+002   9.87853360E-001   7.18204246E-001   9.87347351E-001
   2.00000000E+002   9.88890854E-001   7.18120810E-001   9.88443563E-001
   2.05000000E+002   9.89851884E-001   7.18048716E-001   9.89455399E-001
   2.10000000E+002   9.90711087E-001   7.17986229E-001   9.90358717E-001
   2.15000000E+002   9.91530932E-001   7.17931904E-001   9.91216951E-001
   2.20000000E+002   9.92284947E-001   7.17884534E-001   9.92004483E-001
   2.25000000E+002   9.92948042E-001   7.17843113E-001   9.92696938E-001
   2.30000000E+002   9.93598986E-001   7.17806793E-001   9.93373635E-001
   2.35000000E+002   9.94166354E-001   7.17774860E-001   9.93963683E-001
   2.40000000E+002   9.94699483E-001   7.17746714E-001   9.94516819E-001
   2.45000000E+002   9.95180609E-001   7.17721842E-001   9.95015643E-001
