# ./jetvheto -in n3lo-fixed-order/H125-LHC13-R04-mb-475-mt-1725-xmur100-xmuf200-log.fxd -xQ 0.25 -out benchmarks-n3lo-smallR/H125-LHC13-R04-mb-475-mt-1725-xmur100-xmuf200-xQ025-NNLO+NNLLa.R0-0.5.res -scheme a -order 2 -ptmax 500.01 -fixed_order 2 -small-r -loop-mass t+b -R0 0.5
# process = H    
# collider = pp   
# rts =  13000.000
# M   =    125.000
# muR =    125.000
# muF =    250.000
# Q   =     31.250
# p   =      5.000
# include_c1_squared =   F
# loop_mass  = t+b 
# alphas(MZ) =    0.11800
# alphas(M) =    0.11264
# alphas(muR) =    0.11264
# Rjet =      0.400
# order = NNLL
# pdf name and set = PDF4LHC15_nnlo_mc.LHgrid,    0
# matching scheme = a
# total cross sections [nb] at LO, NLOdiff, NNLOdiff, N3LOdiff =     0.012791    0.017144    0.009991    0.003297
#----------------------------------------------------------------------
# the lines that follow give the jet-veto efficiencies as a function of pt
#         pt            matched eff      resummed eff     fixed-order eff
   2.00000000E+001   4.84451215E-001   5.31735683E-001   4.96990142E-001
   2.50000000E+001   5.71000708E-001   6.01171462E-001   5.79781046E-001
   3.00000000E+001   6.37690846E-001   6.41742317E-001   6.43205554E-001
   3.50000000E+001   6.90199139E-001   6.63716951E-001   6.93573535E-001
   4.00000000E+001   7.32302172E-001   6.75224717E-001   7.34390203E-001
   4.50000000E+001   7.66783977E-001   6.81295295E-001   7.68110951E-001
   5.00000000E+001   7.95391428E-001   6.84598489E-001   7.96256890E-001
   5.50000000E+001   8.19471847E-001   6.86468918E-001   8.20052497E-001
   6.00000000E+001   8.39847113E-001   6.87571935E-001   8.40246247E-001
   6.50000000E+001   8.57372140E-001   6.88247588E-001   8.57652920E-001
   7.00000000E+001   8.72566880E-001   6.88675919E-001   8.72768673E-001
   7.50000000E+001   8.85730662E-001   6.88955902E-001   8.85878372E-001
   8.00000000E+001   8.97300386E-001   6.89143961E-001   8.97410399E-001
   8.50000000E+001   9.07391283E-001   6.89273368E-001   9.07474445E-001
   9.00000000E+001   9.16317089E-001   6.89364356E-001   9.16380866E-001
   9.50000000E+001   9.24188140E-001   6.89429577E-001   9.24237657E-001
   1.00000000E+002   9.31124760E-001   6.89477146E-001   9.31163638E-001
   1.05000000E+002   9.37383671E-001   6.89512388E-001   9.37414533E-001
   1.10000000E+002   9.42952321E-001   6.89538872E-001   9.42977060E-001
   1.15000000E+002   9.47941715E-001   6.89559033E-001   9.47961719E-001
   1.20000000E+002   9.52413000E-001   6.89574563E-001   9.52429312E-001
   1.25000000E+002   9.56417906E-001   6.89586657E-001   9.56431308E-001
   1.30000000E+002   9.60029253E-001   6.89596169E-001   9.60040343E-001
   1.35000000E+002   9.63325667E-001   6.89603720E-001   9.63334907E-001
   1.40000000E+002   9.66292348E-001   6.89609766E-001   9.66300093E-001
   1.45000000E+002   9.68978132E-001   6.89614645E-001   9.68984662E-001
   1.50000000E+002   9.71427297E-001   6.89618612E-001   9.71432833E-001
   1.55000000E+002   9.73646041E-001   6.89621860E-001   9.73650757E-001
   1.60000000E+002   9.75693115E-001   6.89624535E-001   9.75697154E-001
   1.65000000E+002   9.77556440E-001   6.89626753E-001   9.77559914E-001
   1.70000000E+002   9.79251683E-001   6.89628603E-001   9.79254684E-001
   1.75000000E+002   9.80775468E-001   6.89630153E-001   9.80778070E-001
   1.80000000E+002   9.82199969E-001   6.89631458E-001   9.82202234E-001
   1.85000000E+002   9.83509541E-001   6.89632563E-001   9.83511521E-001
   1.90000000E+002   9.84691624E-001   6.89633503E-001   9.84693360E-001
   1.95000000E+002   9.85786466E-001   6.89634305E-001   9.85787993E-001
   2.00000000E+002   9.86783843E-001   6.89634993E-001   9.86785191E-001
   2.05000000E+002   9.87711036E-001   6.89635585E-001   9.87712229E-001
   2.10000000E+002   9.88568693E-001   6.89636097E-001   9.88569752E-001
   2.15000000E+002   9.89359451E-001   6.89636540E-001   9.89360394E-001
   2.20000000E+002   9.90084472E-001   6.89636926E-001   9.90085314E-001
   2.25000000E+002   9.90749972E-001   6.89637262E-001   9.90750725E-001
   2.30000000E+002   9.91376428E-001   6.89637556E-001   9.91377103E-001
   2.35000000E+002   9.91960146E-001   6.89637815E-001   9.91960753E-001
   2.40000000E+002   9.92474659E-001   6.89638042E-001   9.92475205E-001
   2.45000000E+002   9.92970514E-001   6.89638243E-001   9.92971008E-001
