# ./jetvheto -in n3lo-fixed-order/H125-LHC13-R04-mb-475-mt-1725-xmur100-xmuf100-log.fxd -xQ 1.0 -out benchmarks-n3lo-smallR/H125-LHC13-R04-mb-475-mt-1725-xmur100-xmuf100-xQ100-NNLO+NNLLb.R0-1.0.res -scheme b -order 2 -ptmax 500.01 -fixed_order 2 -small-r -loop-mass t+b -R0 1.0
# process = H    
# collider = pp   
# rts =  13000.000
# M   =    125.000
# muR =    125.000
# muF =    125.000
# Q   =    125.000
# p   =      5.000
# include_c1_squared =   F
# loop_mass  = t+b 
# alphas(MZ) =    0.11800
# alphas(M) =    0.11264
# alphas(muR) =    0.11264
# Rjet =      0.400
# order = NNLL
# pdf name and set = PDF4LHC15_nnlo_mc.LHgrid,    0
# matching scheme = b
# total cross sections [nb] at LO, NLOdiff, NNLOdiff, N3LOdiff =     0.012292    0.016994    0.010146    0.003834
#----------------------------------------------------------------------
# the lines that follow give the jet-veto efficiencies as a function of pt
#         pt            matched eff      resummed eff     fixed-order eff
   2.00000000E+001   4.24996445E-001   5.72419306E-001   3.17550639E-001
   2.50000000E+001   5.11066404E-001   6.58056610E-001   4.27790656E-001
   3.00000000E+001   5.81489249E-001   7.18183561E-001   5.12989288E-001
   3.50000000E+001   6.39803207E-001   7.60082476E-001   5.80985186E-001
   4.00000000E+001   6.88140812E-001   7.88833122E-001   6.36189278E-001
   4.50000000E+001   7.28587926E-001   8.07966179E-001   6.81851830E-001
   5.00000000E+001   7.62652157E-001   8.19992218E-001   7.20147070E-001
   5.50000000E+001   7.91353749E-001   8.26735514E-001   7.52478916E-001
   6.00000000E+001   8.15918097E-001   8.29534603E-001   7.80255597E-001
   6.50000000E+001   8.36925302E-001   8.29392424E-001   8.04204225E-001
   7.00000000E+001   8.54882813E-001   8.27081821E-001   8.24914709E-001
   7.50000000E+001   8.70311703E-001   8.23206585E-001   8.42942328E-001
   8.00000000E+001   8.83738962E-001   8.18248052E-001   8.58824881E-001
   8.50000000E+001   8.95263739E-001   8.12593430E-001   8.72688093E-001
   9.00000000E+001   9.05433175E-001   8.06556091E-001   8.85054448E-001
   9.50000000E+001   9.14237513E-001   8.00385994E-001   8.95930965E-001
   1.00000000E+002   9.21976408E-001   7.94281041E-001   9.05604482E-001
   1.05000000E+002   9.28853834E-001   7.88392625E-001   9.14272722E-001
   1.10000000E+002   9.34847158E-001   7.82830399E-001   9.21917006E-001
   1.15000000E+002   9.40277409E-001   7.77668238E-001   9.28847935E-001
   1.20000000E+002   9.45049100E-001   7.72948259E-001   9.34979383E-001
   1.25000000E+002   9.49444250E-001   7.68686666E-001   9.40591281E-001
   1.30000000E+002   9.53399634E-001   7.64879396E-001   9.45631198E-001
   1.35000000E+002   9.57019684E-001   7.61507564E-001   9.50210516E-001
   1.40000000E+002   9.60275759E-001   7.58542364E-001   9.54313076E-001
   1.45000000E+002   9.63330101E-001   7.55949204E-001   9.58107610E-001
   1.50000000E+002   9.66064197E-001   7.53690987E-001   9.61490343E-001
   1.55000000E+002   9.68626979E-001   7.51730458E-001   9.64617823E-001
   1.60000000E+002   9.70963992E-001   7.50031845E-001   9.67446259E-001
   1.65000000E+002   9.73119849E-001   7.48561918E-001   9.70029596E-001
   1.70000000E+002   9.75118052E-001   7.47290503E-001   9.72399079E-001
   1.75000000E+002   9.76934343E-001   7.46190666E-001   9.74538410E-001
   1.80000000E+002   9.78622683E-001   7.45238688E-001   9.76507469E-001
   1.85000000E+002   9.80176110E-001   7.44413877E-001   9.78305324E-001
   1.90000000E+002   9.81617950E-001   7.43698319E-001   9.79960040E-001
   1.95000000E+002   9.82976407E-001   7.43076588E-001   9.81504081E-001
   2.00000000E+002   9.84211315E-001   7.42535449E-001   9.82901295E-001
   2.05000000E+002   9.85367478E-001   7.42063576E-001   9.84199444E-001
   2.10000000E+002   9.86427170E-001   7.41651294E-001   9.85383694E-001
   2.15000000E+002   9.87384739E-001   7.41290345E-001   9.86450755E-001
   2.20000000E+002   9.88295389E-001   7.40973680E-001   9.87457670E-001
   2.25000000E+002   9.89131248E-001   7.40695281E-001   9.88378441E-001
   2.30000000E+002   9.89905223E-001   7.40450008E-001   9.89227429E-001
   2.35000000E+002   9.90633059E-001   7.40233465E-001   9.90021629E-001
   2.40000000E+002   9.91287280E-001   7.40041887E-001   9.90734762E-001
   2.45000000E+002   9.91911240E-001   7.39872047E-001   9.91411035E-001
