# ./jetvheto -in n3lo-fixed-order/H125-LHC13-R04-mb-0-mt-1725-xmur050-xmuf050-log.fxd -xQ 0.5 -out benchmarks-n3lo-smallR/H125-LHC13-R04-mb-0-mt-1725-xmur050-xmuf050-xQ050-N3LO+NNLLa.R0-2.0.res -scheme a -order 2 -ptmax 500.01 -small-r -fixed_order 3 -loop-mass t -R0 2.0
# process = H    
# collider = pp   
# rts =  13000.000
# M   =    125.000
# muR =     62.500
# muF =     62.500
# Q   =     62.500
# p   =      5.000
# include_c1_squared =   F
# loop_mass  = t   
# alphas(MZ) =    0.11800
# alphas(M) =    0.11264
# alphas(muR) =    0.12516
# Rjet =      0.400
# order = NNLL
# pdf name and set = PDF4LHC15_nnlo_mc.LHgrid,    0
# matching scheme = a
# total cross sections [nb] at LO, NLOdiff, NNLOdiff, N3LOdiff =     0.015885    0.020561    0.008998    0.001413
#----------------------------------------------------------------------
# the lines that follow give the jet-veto efficiencies as a function of pt
#         pt            matched eff      resummed eff     fixed-order eff
   2.00000000E+001   4.78857411E-001   5.16774156E-001   4.58478332E-001
   2.50000000E+001   5.61493020E-001   5.91197364E-001   5.43713081E-001
   3.00000000E+001   6.30632519E-001   6.43540171E-001   6.16066731E-001
   3.50000000E+001   6.85567764E-001   6.79916009E-001   6.73487735E-001
   4.00000000E+001   7.28120502E-001   7.04713444E-001   7.18067162E-001
   4.50000000E+001   7.65049433E-001   7.21149583E-001   7.56928051E-001
   5.00000000E+001   7.94777949E-001   7.31675177E-001   7.88284226E-001
   5.50000000E+001   8.20306340E-001   7.38174717E-001   8.15210520E-001
   6.00000000E+001   8.41394043E-001   7.42057787E-001   8.37433297E-001
   6.50000000E+001   8.60972254E-001   7.44318728E-001   8.57921417E-001
   7.00000000E+001   8.76127543E-001   7.45615701E-001   8.73778810E-001
   7.50000000E+001   8.89731771E-001   7.46357320E-001   8.87924776E-001
   8.00000000E+001   9.02066211E-001   7.46784517E-001   9.00670973E-001
   8.50000000E+001   9.13053276E-001   7.47034399E-001   9.11969998E-001
   9.00000000E+001   9.22776591E-001   7.47183814E-001   9.21929710E-001
   9.50000000E+001   9.30574212E-001   7.47275494E-001   9.29907319E-001
   1.00000000E+002   9.38035417E-001   7.47333332E-001   9.37506036E-001
   1.05000000E+002   9.43966911E-001   7.47370868E-001   9.43543485E-001
   1.10000000E+002   9.49427236E-001   7.47395920E-001   9.49085884E-001
   1.15000000E+002   9.54600248E-001   7.47413091E-001   9.54323006E-001
   1.20000000E+002   9.59266574E-001   7.47425161E-001   9.59039767E-001
   1.25000000E+002   9.63159715E-001   7.47433844E-001   9.62972878E-001
   1.30000000E+002   9.66521352E-001   7.47440222E-001   9.66366470E-001
   1.35000000E+002   9.69860131E-001   7.47445000E-001   9.69730923E-001
   1.40000000E+002   9.72905456E-001   7.47448639E-001   9.72797037E-001
   1.45000000E+002   9.75557080E-001   7.47451455E-001   9.75465608E-001
   1.50000000E+002   9.77629885E-001   7.47453663E-001   9.77552300E-001
   1.55000000E+002   9.79980163E-001   7.47455417E-001   9.79914033E-001
   1.60000000E+002   9.82085982E-001   7.47456825E-001   9.82029350E-001
   1.65000000E+002   9.83383708E-001   7.47457967E-001   9.83335000E-001
   1.70000000E+002   9.85055425E-001   7.47458902E-001   9.85013351E-001
   1.75000000E+002   9.86596829E-001   7.47459672E-001   9.86560338E-001
   1.80000000E+002   9.87778326E-001   7.47460313E-001   9.87746562E-001
   1.85000000E+002   9.88864367E-001   7.47460849E-001   9.88836616E-001
   1.90000000E+002   9.89976497E-001   7.47461300E-001   9.89952168E-001
   1.95000000E+002   9.91003469E-001   7.47461681E-001   9.90982071E-001
   2.00000000E+002   9.91911453E-001   7.47462006E-001   9.91892575E-001
   2.05000000E+002   9.92627687E-001   7.47462284E-001   9.92610981E-001
   2.10000000E+002   9.93346485E-001   7.47462523E-001   9.93331661E-001
   2.15000000E+002   9.93905241E-001   7.47462729E-001   9.93892050E-001
   2.20000000E+002   9.94700845E-001   7.47462907E-001   9.94689076E-001
   2.25000000E+002   9.95113964E-001   7.47463062E-001   9.95103439E-001
   2.30000000E+002   9.95622539E-001   7.47463197E-001   9.95613102E-001
   2.35000000E+002   9.95992836E-001   7.47463316E-001   9.95984357E-001
   2.40000000E+002   9.96396648E-001   7.47463419E-001   9.96389013E-001
   2.45000000E+002   9.96868923E-001   7.47463511E-001   9.96862033E-001
