# ./jetvheto -in n3lo-fixed-order/H125-LHC13-R04-mb-475-mt-1725-xmur100-xmuf100-log.fxd -xQ 1.0 -out benchmarks-n3lo-smallR/H125-LHC13-R04-mb-475-mt-1725-xmur100-xmuf100-xQ100-NNLO+NNLLb.res -scheme b -order 2 -ptmax 500.01 -fixed_order 2 -loop-mass t+b
# process = H    
# collider = pp   
# rts =  13000.000
# M   =    125.000
# muR =    125.000
# muF =    125.000
# Q   =    125.000
# p   =      5.000
# include_c1_squared =   F
# loop_mass  = t+b 
# alphas(MZ) =    0.11800
# alphas(M) =    0.11264
# alphas(muR) =    0.11264
# Rjet =      0.400
# order = NNLL
# pdf name and set = PDF4LHC15_nnlo_mc.LHgrid,    0
# matching scheme = b
# total cross sections [nb] at LO, NLOdiff, NNLOdiff, N3LOdiff =     0.012292    0.016994    0.010146    0.003834
#----------------------------------------------------------------------
# the lines that follow give the jet-veto efficiencies as a function of pt
#         pt            matched eff      resummed eff     fixed-order eff
   2.00000000E+001   4.15895152E-001   5.60160955E-001   3.17550639E-001
   2.50000000E+001   5.03156347E-001   6.47871504E-001   4.27790656E-001
   3.00000000E+001   5.74689889E-001   7.09785832E-001   5.12989288E-001
   3.50000000E+001   6.33980104E-001   7.53164663E-001   5.80985186E-001
   4.00000000E+001   6.83162038E-001   7.83125828E-001   6.36189278E-001
   4.50000000E+001   7.24332661E-001   8.03247311E-001   6.81851830E-001
   5.00000000E+001   7.59015515E-001   8.16082155E-001   7.20147070E-001
   5.50000000E+001   7.88246711E-001   8.23489559E-001   7.52478916E-001
   6.00000000E+001   8.13263761E-001   8.26835970E-001   7.80255597E-001
   6.50000000E+001   8.34658865E-001   8.27146387E-001   8.04204225E-001
   7.00000000E+001   8.52949176E-001   8.25211066E-001   8.24914709E-001
   7.50000000E+001   8.68663540E-001   8.21647628E-001   8.42942328E-001
   8.00000000E+001   8.82335367E-001   8.16948473E-001   8.58824881E-001
   8.50000000E+001   8.94069804E-001   8.11509745E-001   8.72688093E-001
   9.00000000E+001   9.04418368E-001   8.05652105E-001   8.85054448E-001
   9.50000000E+001   9.13375715E-001   7.99631517E-001   8.95930965E-001
   1.00000000E+002   9.21244922E-001   7.93650867E-001   9.05604482E-001
   1.05000000E+002   9.28233049E-001   7.87865715E-001   9.14272722E-001
   1.10000000E+002   9.34320297E-001   7.82389211E-001   9.21917006E-001
   1.15000000E+002   9.39829967E-001   7.77298175E-001   9.28847935E-001
   1.20000000E+002   9.44668781E-001   7.72637199E-001   9.34979383E-001
   1.25000000E+002   9.49120514E-001   7.68424564E-001   9.40591281E-001
   1.30000000E+002   9.53123602E-001   7.64657946E-001   9.45631198E-001
   1.35000000E+002   9.56783848E-001   7.61319907E-001   9.50210516E-001
   1.40000000E+002   9.60073815E-001   7.58382844E-001   9.54313076E-001
   1.45000000E+002   9.63156735E-001   7.55813160E-001   9.58107610E-001
   1.50000000E+002   9.65914980E-001   7.53574573E-001   9.61490343E-001
   1.55000000E+002   9.68498184E-001   7.51630503E-001   9.64617823E-001
   1.60000000E+002   9.70852510E-001   7.49945729E-001   9.67446259E-001
   1.65000000E+002   9.73023073E-001   7.48487474E-001   9.70029596E-001
   1.70000000E+002   9.75033796E-001   7.47225933E-001   9.72399079E-001
   1.75000000E+002   9.76860777E-001   7.46134476E-001   9.74538410E-001
   1.80000000E+002   9.78558266E-001   7.45189633E-001   9.76507469E-001
   1.85000000E+002   9.80119545E-001   7.44370917E-001   9.78305324E-001
   1.90000000E+002   9.81568141E-001   7.43660583E-001   9.79960040E-001
   1.95000000E+002   9.82932427E-001   7.43043342E-001   9.81504081E-001
   2.00000000E+002   9.84172381E-001   7.42506075E-001   9.82901295E-001
   2.05000000E+002   9.85332921E-001   7.42037551E-001   9.84199444E-001
   2.10000000E+002   9.86396421E-001   7.41628176E-001   9.85383694E-001
   2.15000000E+002   9.87357315E-001   7.41269756E-001   9.86450755E-001
   2.20000000E+002   9.88270871E-001   7.40955297E-001   9.87457670E-001
   2.25000000E+002   9.89109279E-001   7.40678830E-001   9.88378441E-001
   2.30000000E+002   9.89885495E-001   7.40435251E-001   9.89227429E-001
   2.35000000E+002   9.90615304E-001   7.40220199E-001   9.90021629E-001
   2.40000000E+002   9.91271269E-001   7.40029935E-001   9.90734762E-001
   2.45000000E+002   9.91896774E-001   7.39861256E-001   9.91411035E-001
