# ./jetvheto -in n3lo-fixed-order/H125-LHC13-R04-mb-475-mt-1725-xmur100-xmuf100-log.fxd -xQ 0.03125 -out benchmarks-n3lo-smallR/H125-LHC13-R04-mb-475-mt-1725-xmur100-xmuf100-xQ03125-NNLO+NNLLb.R0-2.0.res -scheme b -order 2 -ptmax 500.01 -fixed_order 2 -small-r -loop-mass t+b -R0 2.0
# process = H    
# collider = pp   
# rts =  13000.000
# M   =    125.000
# muR =    125.000
# muF =    125.000
# Q   =      3.906
# p   =      5.000
# include_c1_squared =   F
# loop_mass  = t+b 
# alphas(MZ) =    0.11800
# alphas(M) =    0.11264
# alphas(muR) =    0.11264
# Rjet =      0.400
# order = NNLL
# pdf name and set = PDF4LHC15_nnlo_mc.LHgrid,    0
# matching scheme = b
# total cross sections [nb] at LO, NLOdiff, NNLOdiff, N3LOdiff =     0.012292    0.016994    0.010146    0.003834
#----------------------------------------------------------------------
# the lines that follow give the jet-veto efficiencies as a function of pt
#         pt            matched eff      resummed eff     fixed-order eff
   2.00000000E+001   3.17575982E-001  -5.50479255E-002   3.17550639E-001
   2.50000000E+001   4.27796704E-001  -5.50492129E-002   4.27790656E-001
   3.00000000E+001   5.12991001E-001  -5.50495882E-002   5.12989288E-001
   3.50000000E+001   5.80985710E-001  -5.50497237E-002   5.80985186E-001
   4.00000000E+001   6.36189434E-001  -5.50497805E-002   6.36189278E-001
   4.50000000E+001   6.81851865E-001  -5.50498071E-002   6.81851830E-001
   5.00000000E+001   7.20147065E-001  -5.50498207E-002   7.20147070E-001
   5.50000000E+001   7.52478900E-001  -5.50498282E-002   7.52478916E-001
   6.00000000E+001   7.80255579E-001  -5.50498325E-002   7.80255597E-001
   6.50000000E+001   8.04204209E-001  -5.50498351E-002   8.04204225E-001
   7.00000000E+001   8.24914696E-001  -5.50498367E-002   8.24914709E-001
   7.50000000E+001   8.42942316E-001  -5.50498378E-002   8.42942328E-001
   8.00000000E+001   8.58824872E-001  -5.50498385E-002   8.58824881E-001
   8.50000000E+001   8.72688085E-001  -5.50498390E-002   8.72688093E-001
   9.00000000E+001   8.85054442E-001  -5.50498393E-002   8.85054448E-001
   9.50000000E+001   8.95930960E-001  -5.50498396E-002   8.95930965E-001
   1.00000000E+002   9.05604478E-001  -5.50498397E-002   9.05604482E-001
   1.05000000E+002   9.14272719E-001  -5.50498399E-002   9.14272722E-001
   1.10000000E+002   9.21917004E-001  -5.50498400E-002   9.21917006E-001
   1.15000000E+002   9.28847932E-001  -5.50498401E-002   9.28847935E-001
   1.20000000E+002   9.34979381E-001  -5.50498401E-002   9.34979383E-001
   1.25000000E+002   9.40591280E-001  -5.50498402E-002   9.40591281E-001
   1.30000000E+002   9.45631197E-001  -5.50498402E-002   9.45631198E-001
   1.35000000E+002   9.50210515E-001  -5.50498402E-002   9.50210516E-001
   1.40000000E+002   9.54313075E-001  -5.50498402E-002   9.54313076E-001
   1.45000000E+002   9.58107610E-001  -5.50498403E-002   9.58107610E-001
   1.50000000E+002   9.61490342E-001  -5.50498403E-002   9.61490343E-001
   1.55000000E+002   9.64617823E-001  -5.50498403E-002   9.64617823E-001
   1.60000000E+002   9.67446259E-001  -5.50498403E-002   9.67446259E-001
   1.65000000E+002   9.70029596E-001  -5.50498403E-002   9.70029596E-001
   1.70000000E+002   9.72399078E-001  -5.50498403E-002   9.72399079E-001
   1.75000000E+002   9.74538410E-001  -5.50498403E-002   9.74538410E-001
   1.80000000E+002   9.76507469E-001  -5.50498403E-002   9.76507469E-001
   1.85000000E+002   9.78305324E-001  -5.50498403E-002   9.78305324E-001
   1.90000000E+002   9.79960039E-001  -5.50498403E-002   9.79960040E-001
   1.95000000E+002   9.81504081E-001  -5.50498403E-002   9.81504081E-001
   2.00000000E+002   9.82901295E-001  -5.50498403E-002   9.82901295E-001
   2.05000000E+002   9.84199444E-001  -5.50498403E-002   9.84199444E-001
   2.10000000E+002   9.85383693E-001  -5.50498403E-002   9.85383694E-001
   2.15000000E+002   9.86450755E-001  -5.50498403E-002   9.86450755E-001
   2.20000000E+002   9.87457670E-001  -5.50498403E-002   9.87457670E-001
   2.25000000E+002   9.88378440E-001  -5.50498403E-002   9.88378441E-001
   2.30000000E+002   9.89227429E-001  -5.50498403E-002   9.89227429E-001
   2.35000000E+002   9.90021629E-001  -5.50498403E-002   9.90021629E-001
   2.40000000E+002   9.90734762E-001  -5.50498403E-002   9.90734762E-001
   2.45000000E+002   9.91411035E-001  -5.50498403E-002   9.91411035E-001
