# ./jetvheto -in n3lo-fixed-order/H125-LHC13-R04-mb-0-mt-1725-xmur050-xmuf100-log.fxd -xQ 0.25 -out benchmarks-n3lo-smallR/H125-LHC13-R04-mb-0-mt-1725-xmur050-xmuf100-xQ025-N3LO+NNLLb.R0-2.0.res -scheme b -order 2 -ptmax 500.01 -small-r -fixed_order 3 -loop-mass t -R0 2.0
# process = H    
# collider = pp   
# rts =  13000.000
# M   =    125.000
# muR =     62.500
# muF =    125.000
# Q   =     31.250
# p   =      5.000
# include_c1_squared =   F
# loop_mass  = t   
# alphas(MZ) =    0.11800
# alphas(M) =    0.11264
# alphas(muR) =    0.12516
# Rjet =      0.400
# order = NNLL
# pdf name and set = PDF4LHC15_nnlo_mc.LHgrid,    0
# matching scheme = b
# total cross sections [nb] at LO, NLOdiff, NNLOdiff, N3LOdiff =     0.016868    0.020591    0.008553    0.000949
#----------------------------------------------------------------------
# the lines that follow give the jet-veto efficiencies as a function of pt
#         pt            matched eff      resummed eff     fixed-order eff
   2.00000000E+001   4.52737608E-001   5.06933877E-001   4.44147613E-001
   2.50000000E+001   5.35994055E-001   5.74146259E-001   5.31088854E-001
   3.00000000E+001   6.09420752E-001   6.13706178E-001   6.07119654E-001
   3.50000000E+001   6.66377491E-001   6.35247789E-001   6.65155664E-001
   4.00000000E+001   7.12643161E-001   6.46568029E-001   7.11953965E-001
   4.50000000E+001   7.50081180E-001   6.52552048E-001   7.49666337E-001
   5.00000000E+001   7.82101321E-001   6.55812059E-001   7.81846163E-001
   5.50000000E+001   8.09670014E-001   6.57659310E-001   8.09509340E-001
   6.00000000E+001   8.32705323E-001   6.58749097E-001   8.32598772E-001
   6.50000000E+001   8.53649774E-001   6.59416809E-001   8.53579085E-001
   7.00000000E+001   8.71078554E-001   6.59840169E-001   8.71029528E-001
   7.50000000E+001   8.85196035E-001   6.60116931E-001   8.85160222E-001
   8.00000000E+001   8.97612996E-001   6.60302839E-001   8.97586419E-001
   8.50000000E+001   9.09035232E-001   6.60430771E-001   9.09015500E-001
   9.00000000E+001   9.18546268E-001   6.60520724E-001   9.18531151E-001
   9.50000000E+001   9.27447299E-001   6.60585205E-001   9.27435725E-001
   1.00000000E+002   9.34625761E-001   6.60632235E-001   9.34616627E-001
   1.05000000E+002   9.41085404E-001   6.60667079E-001   9.41078136E-001
   1.10000000E+002   9.46948763E-001   6.60693263E-001   9.46942949E-001
   1.15000000E+002   9.52190403E-001   6.60713196E-001   9.52185702E-001
   1.20000000E+002   9.56673412E-001   6.60728551E-001   9.56669565E-001
   1.25000000E+002   9.60451062E-001   6.60740508E-001   9.60447873E-001
   1.30000000E+002   9.64488408E-001   6.60749913E-001   9.64485783E-001
   1.35000000E+002   9.67950728E-001   6.60757379E-001   9.67948544E-001
   1.40000000E+002   9.70753807E-001   6.60763356E-001   9.70751967E-001
   1.45000000E+002   9.73492017E-001   6.60768180E-001   9.73490463E-001
   1.50000000E+002   9.75737731E-001   6.60772102E-001   9.75736407E-001
   1.55000000E+002   9.78394990E-001   6.60775313E-001   9.78393871E-001
   1.60000000E+002   9.79869787E-001   6.60777959E-001   9.79868816E-001
   1.65000000E+002   9.81667569E-001   6.60780152E-001   9.81666733E-001
   1.70000000E+002   9.83186388E-001   6.60781980E-001   9.83185663E-001
   1.75000000E+002   9.84740712E-001   6.60783513E-001   9.84740083E-001
   1.80000000E+002   9.86157495E-001   6.60784804E-001   9.86156947E-001
   1.85000000E+002   9.87423333E-001   6.60785896E-001   9.87422854E-001
   1.90000000E+002   9.88126455E-001   6.60786825E-001   9.88126031E-001
   1.95000000E+002   9.89298504E-001   6.60787619E-001   9.89298131E-001
   2.00000000E+002   9.90253854E-001   6.60788299E-001   9.90253524E-001
   2.05000000E+002   9.91028756E-001   6.60788884E-001   9.91028463E-001
   2.10000000E+002   9.91717188E-001   6.60789390E-001   9.91716927E-001
   2.15000000E+002   9.92587599E-001   6.60789828E-001   9.92587368E-001
   2.20000000E+002   9.93112460E-001   6.60790209E-001   9.93112253E-001
   2.25000000E+002   9.93729749E-001   6.60790542E-001   9.93729564E-001
   2.30000000E+002   9.94307859E-001   6.60790833E-001   9.94307692E-001
   2.35000000E+002   9.94837101E-001   6.60791088E-001   9.94836951E-001
   2.40000000E+002   9.95117335E-001   6.60791313E-001   9.95117200E-001
   2.45000000E+002   9.95623027E-001   6.60791512E-001   9.95622905E-001
