# ./jetvheto -in n3lo-fixed-order/H125-LHC13-R04-mb-0-mt-1725-xmur100-xmuf050-log.fxd -xQ 0.25 -out benchmarks-n3lo-smallR/H125-LHC13-R04-mb-0-mt-1725-xmur100-xmuf050-xQ025-NNLO+NNLLa.R0-1.5.res -scheme a -order 2 -ptmax 500.01 -small-r -fixed_order 2 -loop-mass t -R0 1.5
# process = H    
# collider = pp   
# rts =  13000.000
# M   =    125.000
# muR =    125.000
# muF =     62.500
# Q   =     31.250
# p   =      5.000
# include_c1_squared =   F
# loop_mass  = t   
# alphas(MZ) =    0.11800
# alphas(M) =    0.11264
# alphas(muR) =    0.11264
# Rjet =      0.400
# order = NNLL
# pdf name and set = PDF4LHC15_nnlo_mc.LHgrid,    0
# matching scheme = a
# total cross sections [nb] at LO, NLOdiff, NNLOdiff, N3LOdiff =     0.012997    0.017347    0.010424    0.004163
#----------------------------------------------------------------------
# the lines that follow give the jet-veto efficiencies as a function of pt
#         pt            matched eff      resummed eff     fixed-order eff
   2.00000000E+001   4.87191640E-001   5.33623111E-001   5.05383673E-001
   2.50000000E+001   5.74389451E-001   6.07834139E-001   5.86599989E-001
   3.00000000E+001   6.41444800E-001   6.51798313E-001   6.49001744E-001
   3.50000000E+001   6.93958426E-001   6.75849762E-001   6.98540679E-001
   4.00000000E+001   7.35846318E-001   6.88525356E-001   7.38658449E-001
   4.50000000E+001   7.69950316E-001   6.95236770E-001   7.71720875E-001
   5.00000000E+001   7.98461426E-001   6.98896482E-001   7.99609682E-001
   5.50000000E+001   8.22097074E-001   7.00971339E-001   8.22862779E-001
   6.00000000E+001   8.42316520E-001   7.02195789E-001   8.42840818E-001
   6.50000000E+001   8.59714587E-001   7.02946153E-001   8.60082325E-001
   7.00000000E+001   8.74746752E-001   7.03421976E-001   8.75010333E-001
   7.50000000E+001   8.87755440E-001   7.03733057E-001   8.87947964E-001
   8.00000000E+001   8.99180174E-001   7.03942030E-001   8.99323286E-001
   8.50000000E+001   9.09256788E-001   7.04085839E-001   9.09364851E-001
   9.00000000E+001   9.18141985E-001   7.04186958E-001   9.18224745E-001
   9.50000000E+001   9.25952472E-001   7.04259444E-001   9.26016654E-001
   1.00000000E+002   9.32980152E-001   7.04312313E-001   9.33030521E-001
   1.05000000E+002   9.39146592E-001   7.04351483E-001   9.39186536E-001
   1.10000000E+002   9.44667053E-001   7.04380919E-001   9.44699045E-001
   1.15000000E+002   9.49636590E-001   7.04403328E-001   9.49662445E-001
   1.20000000E+002   9.54117429E-001   7.04420589E-001   9.54138501E-001
   1.25000000E+002   9.58195490E-001   7.04434032E-001   9.58212797E-001
   1.30000000E+002   9.61810745E-001   7.04444605E-001   9.61825060E-001
   1.35000000E+002   9.65074979E-001   7.04452998E-001   9.65086900E-001
   1.40000000E+002   9.68062890E-001   7.04459718E-001   9.68072879E-001
   1.45000000E+002   9.70791474E-001   7.04465141E-001   9.70799893E-001
   1.50000000E+002   9.73289856E-001   7.04469550E-001   9.73296991E-001
   1.55000000E+002   9.75541783E-001   7.04473160E-001   9.75547861E-001
   1.60000000E+002   9.77593814E-001   7.04476134E-001   9.77599016E-001
   1.65000000E+002   9.79455303E-001   7.04478600E-001   9.79459776E-001
   1.70000000E+002   9.81167822E-001   7.04480655E-001   9.81171685E-001
   1.75000000E+002   9.82720946E-001   7.04482378E-001   9.82724296E-001
   1.80000000E+002   9.84130575E-001   7.04483829E-001   9.84133490E-001
   1.85000000E+002   9.85437923E-001   7.04485057E-001   9.85440470E-001
   1.90000000E+002   9.86633546E-001   7.04486102E-001   9.86635778E-001
   1.95000000E+002   9.87730164E-001   7.04486994E-001   9.87732128E-001
   2.00000000E+002   9.88736463E-001   7.04487758E-001   9.88738196E-001
   2.05000000E+002   9.89657997E-001   7.04488416E-001   9.89659531E-001
   2.10000000E+002   9.90489939E-001   7.04488985E-001   9.90491300E-001
   2.15000000E+002   9.91274972E-001   7.04489478E-001   9.91276183E-001
   2.20000000E+002   9.91993752E-001   7.04489906E-001   9.91994832E-001
   2.25000000E+002   9.92640649E-001   7.04490280E-001   9.92641615E-001
   2.30000000E+002   9.93266212E-001   7.04490607E-001   9.93267078E-001
   2.35000000E+002   9.93812291E-001   7.04490895E-001   9.93813070E-001
   2.40000000E+002   9.94329108E-001   7.04491147E-001   9.94329809E-001
   2.45000000E+002   9.94802157E-001   7.04491370E-001   9.94802790E-001
