# ./jetvheto -in n3lo-fixed-order/H125-LHC13-R04-mb-0-mt-1725-xmur050-xmuf050-log.fxd -xQ 0.125 -out benchmarks-n3lo-smallR/H125-LHC13-R04-mb-0-mt-1725-xmur050-xmuf050-xQ125-N3LO+NNLLb.R0-0.5.res -scheme b -order 2 -ptmax 500.01 -small-r -fixed_order 3 -loop-mass t -R0 0.5
# process = H    
# collider = pp   
# rts =  13000.000
# M   =    125.000
# muR =     62.500
# muF =     62.500
# Q   =     15.625
# p   =      5.000
# include_c1_squared =   F
# loop_mass  = t   
# alphas(MZ) =    0.11800
# alphas(M) =    0.11264
# alphas(muR) =    0.12516
# Rjet =      0.400
# order = NNLL
# pdf name and set = PDF4LHC15_nnlo_mc.LHgrid,    0
# matching scheme = b
# total cross sections [nb] at LO, NLOdiff, NNLOdiff, N3LOdiff =     0.015885    0.020561    0.008998    0.001413
#----------------------------------------------------------------------
# the lines that follow give the jet-veto efficiencies as a function of pt
#         pt            matched eff      resummed eff     fixed-order eff
   2.00000000E+001   4.42691448E-001   4.41445990E-001   4.41643521E-001
   2.50000000E+001   5.29843351E-001   4.56016451E-001   5.29528045E-001
   3.00000000E+001   6.04201423E-001   4.60764456E-001   6.04131024E-001
   3.50000000E+001   6.63348501E-001   4.62543619E-001   6.63337130E-001
   4.00000000E+001   7.09302546E-001   4.63300629E-001   7.09302441E-001
   4.50000000E+001   7.49366996E-001   4.63657660E-001   7.49371437E-001
   5.00000000E+001   7.81698295E-001   4.63840515E-001   7.81702411E-001
   5.50000000E+001   8.09462211E-001   4.63940626E-001   8.09465789E-001
   6.00000000E+001   8.32376730E-001   4.63998525E-001   8.32379427E-001
   6.50000000E+001   8.53502265E-001   4.64033579E-001   8.53504482E-001
   7.00000000E+001   8.69853259E-001   4.64055642E-001   8.69854849E-001
   7.50000000E+001   8.84439392E-001   4.64069996E-001   8.84440584E-001
   8.00000000E+001   8.97582113E-001   4.64079607E-001   8.97583035E-001
   8.50000000E+001   9.09232602E-001   4.64086208E-001   9.09233323E-001
   9.00000000E+001   9.19502095E-001   4.64090842E-001   9.19502663E-001
   9.50000000E+001   9.27727844E-001   4.64094160E-001   9.27728280E-001
   1.00000000E+002   9.35562880E-001   4.64096578E-001   9.35563225E-001
   1.05000000E+002   9.41788098E-001   4.64098369E-001   9.41788367E-001
   1.10000000E+002   9.47502855E-001   4.64099714E-001   9.47503067E-001
   1.15000000E+002   9.52902828E-001   4.64100738E-001   9.52903001E-001
   1.20000000E+002   9.57766256E-001   4.64101526E-001   9.57766396E-001
   1.25000000E+002   9.61821666E-001   4.64102140E-001   9.61821780E-001
   1.30000000E+002   9.65320779E-001   4.64102623E-001   9.65320871E-001
   1.35000000E+002   9.68789842E-001   4.64103006E-001   9.68789919E-001
   1.40000000E+002   9.71951287E-001   4.64103312E-001   9.71951352E-001
   1.45000000E+002   9.74702830E-001   4.64103560E-001   9.74702884E-001
   1.50000000E+002   9.76854402E-001   4.64103761E-001   9.76854447E-001
   1.55000000E+002   9.79289563E-001   4.64103926E-001   9.79289601E-001
   1.60000000E+002   9.81470646E-001   4.64104062E-001   9.81470679E-001
   1.65000000E+002   9.82816892E-001   4.64104174E-001   9.82816919E-001
   1.70000000E+002   9.84547423E-001   4.64104268E-001   9.84547446E-001
   1.75000000E+002   9.86142506E-001   4.64104347E-001   9.86142527E-001
   1.80000000E+002   9.87365610E-001   4.64104413E-001   9.87365627E-001
   1.85000000E+002   9.88489554E-001   4.64104469E-001   9.88489569E-001
   1.90000000E+002   9.89639788E-001   4.64104517E-001   9.89639801E-001
   1.95000000E+002   9.90701711E-001   4.64104557E-001   9.90701722E-001
   2.00000000E+002   9.91640522E-001   4.64104592E-001   9.91640532E-001
   2.05000000E+002   9.92381262E-001   4.64104622E-001   9.92381271E-001
   2.10000000E+002   9.93124348E-001   4.64104648E-001   9.93124356E-001
   2.15000000E+002   9.93702159E-001   4.64104671E-001   9.93702166E-001
   2.20000000E+002   9.94523964E-001   4.64104690E-001   9.94523970E-001
   2.25000000E+002   9.94951210E-001   4.64104707E-001   9.94951215E-001
   2.30000000E+002   9.95476718E-001   4.64104722E-001   9.95476723E-001
   2.35000000E+002   9.95859515E-001   4.64104735E-001   9.95859519E-001
   2.40000000E+002   9.96276750E-001   4.64104747E-001   9.96276754E-001
   2.45000000E+002   9.96764476E-001   4.64104757E-001   9.96764480E-001
