# ./jetvheto -in n3lo-fixed-order/H125-LHC13-R04-mb-0-mt-1725-xmur025-xmuf025-log.fxd -xQ 0.0625 -out benchmarks-n3lo-smallR/H125-LHC13-R04-mb-0-mt-1725-xmur025-xmuf025-xQ0625-NNLO+NNLLb.R0-2.0.res -scheme b -order 2 -ptmax 500.01 -small-r -fixed_order 2 -loop-mass t -R0 2.0
# process = H    
# collider = pp   
# rts =  13000.000
# M   =    125.000
# muR =     31.250
# muF =     31.250
# Q   =      7.812
# p   =      5.000
# include_c1_squared =   F
# loop_mass  = t   
# alphas(MZ) =    0.11800
# alphas(M) =    0.11264
# alphas(muR) =    0.14091
# Rjet =      0.400
# order = NNLL
# pdf name and set = PDF4LHC15_nnlo_mc.LHgrid,    0
# matching scheme = b
# total cross sections [nb] at LO, NLOdiff, NNLOdiff, N3LOdiff =     0.018140    0.025356    0.006043   -0.002471
#----------------------------------------------------------------------
# the lines that follow give the jet-veto efficiencies as a function of pt
#         pt            matched eff      resummed eff     fixed-order eff
   2.00000000E+001   3.51994606E-001   4.50950809E-002   3.51600386E-001
   2.50000000E+001   4.54088612E-001   4.52559535E-002   4.53985492E-001
   3.00000000E+001   5.35368440E-001   4.53030926E-002   5.35336815E-001
   3.50000000E+001   6.01461545E-001   4.53201384E-002   6.01450914E-001
   4.00000000E+001   6.55711330E-001   4.53272918E-002   6.55707630E-001
   4.50000000E+001   7.00810472E-001   4.53306452E-002   7.00809251E-001
   5.00000000E+001   7.38751066E-001   4.53323576E-002   7.38750758E-001
   5.50000000E+001   7.70859793E-001   4.53332936E-002   7.70859819E-001
   6.00000000E+001   7.98354514E-001   4.53338346E-002   7.98354652E-001
   6.50000000E+001   8.22044719E-001   4.53341619E-002   8.22044881E-001
   7.00000000E+001   8.42597490E-001   4.53343678E-002   8.42597642E-001
   7.50000000E+001   8.60248281E-001   4.53345018E-002   8.60248412E-001
   8.00000000E+001   8.75880678E-001   4.53345915E-002   8.75880788E-001
   8.50000000E+001   8.89499502E-001   4.53346531E-002   8.89499593E-001
   9.00000000E+001   9.01527966E-001   4.53346963E-002   9.01528041E-001
   9.50000000E+001   9.12012654E-001   4.53347273E-002   9.12012715E-001
   1.00000000E+002   9.21377796E-001   4.53347498E-002   9.21377846E-001
   1.05000000E+002   9.29724110E-001   4.53347666E-002   9.29724151E-001
   1.10000000E+002   9.37096863E-001   4.53347791E-002   9.37096897E-001
   1.15000000E+002   9.43747894E-001   4.53347887E-002   9.43747922E-001
   1.20000000E+002   9.49668455E-001   4.53347960E-002   9.49668478E-001
   1.25000000E+002   9.54867777E-001   4.53348017E-002   9.54867796E-001
   1.30000000E+002   9.59603105E-001   4.53348062E-002   9.59603121E-001
   1.35000000E+002   9.63851841E-001   4.53348098E-002   9.63851855E-001
   1.40000000E+002   9.67671505E-001   4.53348127E-002   9.67671517E-001
   1.45000000E+002   9.71162504E-001   4.53348150E-002   9.71162513E-001
   1.50000000E+002   9.74256065E-001   4.53348169E-002   9.74256073E-001
   1.55000000E+002   9.77052440E-001   4.53348184E-002   9.77052447E-001
   1.60000000E+002   9.79607532E-001   4.53348197E-002   9.79607538E-001
   1.65000000E+002   9.81923685E-001   4.53348207E-002   9.81923690E-001
   1.70000000E+002   9.83977580E-001   4.53348216E-002   9.83977585E-001
   1.75000000E+002   9.85855851E-001   4.53348223E-002   9.85855855E-001
   1.80000000E+002   9.87558147E-001   4.53348229E-002   9.87558150E-001
   1.85000000E+002   9.89077594E-001   4.53348235E-002   9.89077597E-001
   1.90000000E+002   9.90487130E-001   4.53348239E-002   9.90487132E-001
   1.95000000E+002   9.91780334E-001   4.53348243E-002   9.91780336E-001
   2.00000000E+002   9.92923035E-001   4.53348246E-002   9.92923037E-001
   2.05000000E+002   9.93988315E-001   4.53348249E-002   9.93988317E-001
   2.10000000E+002   9.94966785E-001   4.53348251E-002   9.94966787E-001
   2.15000000E+002   9.95795729E-001   4.53348253E-002   9.95795730E-001
   2.20000000E+002   9.96585545E-001   4.53348255E-002   9.96585546E-001
   2.25000000E+002   9.97313359E-001   4.53348257E-002   9.97313360E-001
   2.30000000E+002   9.97943762E-001   4.53348258E-002   9.97943763E-001
   2.35000000E+002   9.98517234E-001   4.53348259E-002   9.98517235E-001
   2.40000000E+002   9.99026318E-001   4.53348261E-002   9.99026319E-001
   2.45000000E+002   9.99502950E-001   4.53348261E-002   9.99502951E-001
