# ./jetvheto -in n3lo-fixed-order/H125-LHC13-R04-mb-475-mt-1725-xmur050-xmuf100-log.fxd -xQ 0.5 -out benchmarks-n3lo-smallR/H125-LHC13-R04-mb-475-mt-1725-xmur050-xmuf100-xQ050-NNLO+NNLLa.R0-1.5.res -scheme a -order 2 -ptmax 500.01 -fixed_order 2 -small-r -loop-mass t+b -R0 1.5
# process = H    
# collider = pp   
# rts =  13000.000
# M   =    125.000
# muR =     62.500
# muF =    125.000
# Q   =     62.500
# p   =      5.000
# include_c1_squared =   F
# loop_mass  = t+b 
# alphas(MZ) =    0.11800
# alphas(M) =    0.11264
# alphas(muR) =    0.12516
# Rjet =      0.400
# order = NNLL
# pdf name and set = PDF4LHC15_nnlo_mc.LHgrid,    0
# matching scheme = a
# total cross sections [nb] at LO, NLOdiff, NNLOdiff, N3LOdiff =     0.015023    0.020252    0.008553    0.000949
#----------------------------------------------------------------------
# the lines that follow give the jet-veto efficiencies as a function of pt
#         pt            matched eff      resummed eff     fixed-order eff
   2.00000000E+001   4.79230738E-001   4.96991178E-001   4.52947522E-001
   2.50000000E+001   5.64230033E-001   5.67948526E-001   5.40649579E-001
   3.00000000E+001   6.31016048E-001   6.17402940E-001   6.09146724E-001
   3.50000000E+001   6.84155843E-001   6.51433988E-001   6.64036606E-001
   4.00000000E+001   7.26759954E-001   6.74358954E-001   7.08772946E-001
   4.50000000E+001   7.61367975E-001   6.89343096E-001   7.45785109E-001
   5.00000000E+001   7.89908350E-001   6.98774080E-001   7.76823295E-001
   5.50000000E+001   8.13691463E-001   7.04465010E-001   8.03003904E-001
   6.00000000E+001   8.34039422E-001   7.07759411E-001   8.25500055E-001
   6.50000000E+001   8.51590668E-001   7.09598113E-001   8.44871993E-001
   7.00000000E+001   8.66827161E-001   7.10594644E-001   8.61589128E-001
   7.50000000E+001   8.80196652E-001   7.11122818E-001   8.76128533E-001
   8.00000000E+001   8.92073620E-001   7.11397864E-001   8.88912118E-001
   8.50000000E+001   9.02500996E-001   7.11538563E-001   9.00035777E-001
   9.00000000E+001   9.11888535E-001   7.11608817E-001   9.09955619E-001
   9.50000000E+001   9.20182300E-001   7.11642453E-001   9.18656833E-001
   1.00000000E+002   9.27590889E-001   7.11657242E-001   9.26378220E-001
   1.05000000E+002   9.34251126E-001   7.11662484E-001   9.33279806E-001
   1.10000000E+002   9.40138570E-001   7.11663038E-001   9.39354824E-001
   1.15000000E+002   9.45492382E-001   7.11661426E-001   9.44855267E-001
   1.20000000E+002   9.50232655E-001   7.11658946E-001   9.49711111E-001
   1.25000000E+002   9.54573434E-001   7.11656250E-001   9.54143526E-001
   1.30000000E+002   9.58471896E-001   7.11653648E-001   9.58115228E-001
   1.35000000E+002   9.62020934E-001   7.11651277E-001   9.61723200E-001
   1.40000000E+002   9.65181964E-001   7.11649181E-001   9.64931972E-001
   1.45000000E+002   9.68125480E-001   7.11647361E-001   9.67914407E-001
   1.50000000E+002   9.70728140E-001   7.11645794E-001   9.70548997E-001
   1.55000000E+002   9.73134844E-001   7.11644454E-001   9.72982040E-001
   1.60000000E+002   9.75321070E-001   7.11643311E-001   9.75190129E-001
   1.65000000E+002   9.77306441E-001   7.11642336E-001   9.77193733E-001
   1.70000000E+002   9.79133154E-001   7.11641505E-001   9.79035734E-001
   1.75000000E+002   9.80773043E-001   7.11640795E-001   9.80688502E-001
   1.80000000E+002   9.82287049E-001   7.11640187E-001   9.82213406E-001
   1.85000000E+002   9.83661859E-001   7.11639666E-001   9.83597479E-001
   1.90000000E+002   9.84929878E-001   7.11639218E-001   9.84873402E-001
   1.95000000E+002   9.86115742E-001   7.11638833E-001   9.86066038E-001
   2.00000000E+002   9.87183063E-001   7.11638499E-001   9.87139184E-001
   2.05000000E+002   9.88177299E-001   7.11638210E-001   9.88138448E-001
   2.10000000E+002   9.89080037E-001   7.11637959E-001   9.89045540E-001
   2.15000000E+002   9.89889588E-001   7.11637741E-001   9.89858874E-001
   2.20000000E+002   9.90657875E-001   7.11637550E-001   9.90630459E-001
   2.25000000E+002   9.91357993E-001   7.11637383E-001   9.91333461E-001
   2.30000000E+002   9.92003290E-001   7.11637236E-001   9.91981285E-001
   2.35000000E+002   9.92610599E-001   7.11637106E-001   9.92590817E-001
   2.40000000E+002   9.93150264E-001   7.11636992E-001   9.93132441E-001
   2.45000000E+002   9.93663964E-001   7.11636892E-001   9.93647873E-001
