# ./jetvheto -in n3lo-fixed-order/H125-LHC13-R04-heft-xmur100-xmuf200-log.fxd -xQ 0.50 -out benchmarks-n3lo-smallR/H125-LHC13-R04-heft-xmur100-xmuf200-xQ050-N3LO+NNLLa.R0-1.5.res -scheme a -order 2 -ptmax 500.01 -fixed_order 3 -small-r -R0 1.5
# process = H    
# collider = pp   
# rts =  13000.000
# M   =    125.000
# muR =    125.000
# muF =    250.000
# Q   =     62.500
# p   =      5.000
# include_c1_squared =   F
# loop_mass  = none
# alphas(MZ) =    0.11800
# alphas(M) =    0.11264
# alphas(muR) =    0.11264
# Rjet =      0.400
# order = NNLL
# pdf name and set = PDF4LHC15_nnlo_mc.LHgrid,    0
# matching scheme = a
# total cross sections [nb] at LO, NLOdiff, NNLOdiff, N3LOdiff =     0.013467    0.016878    0.009991    0.003297
#----------------------------------------------------------------------
# the lines that follow give the jet-veto efficiencies as a function of pt
#         pt            matched eff      resummed eff     fixed-order eff
   2.00000000E+001   4.63990239E-001   5.36114391E-001   4.53320057E-001
   2.50000000E+001   5.51219547E-001   6.15367589E-001   5.42970984E-001
   3.00000000E+001   6.18796411E-001   6.70841187E-001   6.11308774E-001
   3.50000000E+001   6.74224316E-001   7.09178318E-001   6.67398638E-001
   4.00000000E+001   7.19219485E-001   7.35136243E-001   7.13032843E-001
   4.50000000E+001   7.55052183E-001   7.52208887E-001   7.49551591E-001
   5.00000000E+001   7.86874599E-001   7.63040830E-001   7.82184597E-001
   5.50000000E+001   8.12233053E-001   7.69649974E-001   8.08329054E-001
   6.00000000E+001   8.33849870E-001   7.73535543E-001   8.30683668E-001
   6.50000000E+001   8.52034105E-001   7.75750912E-001   8.49512183E-001
   7.00000000E+001   8.68908857E-001   7.76987564E-001   8.66921638E-001
   7.50000000E+001   8.82572093E-001   7.77670339E-001   8.81016191E-001
   8.00000000E+001   8.94466382E-001   7.78046584E-001   8.93249479E-001
   8.50000000E+001   9.05183096E-001   7.78254969E-001   9.04229308E-001
   9.00000000E+001   9.14254845E-001   7.78371526E-001   9.13504110E-001
   9.50000000E+001   9.22983039E-001   7.78437523E-001   9.22388341E-001
   1.00000000E+002   9.30192722E-001   7.78475400E-001   9.29718901E-001
   1.05000000E+002   9.36494344E-001   7.78497450E-001   9.36114161E-001
   1.10000000E+002   9.41908498E-001   7.78510455E-001   9.41601357E-001
   1.15000000E+002   9.47169980E-001   7.78518213E-001   9.46919982E-001
   1.20000000E+002   9.51986511E-001   7.78522883E-001   9.51781598E-001
   1.25000000E+002   9.55843592E-001   7.78525712E-001   9.55674634E-001
   1.30000000E+002   9.59623702E-001   7.78527430E-001   9.59483452E-001
   1.35000000E+002   9.62787975E-001   7.78528471E-001   9.62670874E-001
   1.40000000E+002   9.66113550E-001   7.78529096E-001   9.66015171E-001
   1.45000000E+002   9.68605386E-001   7.78529464E-001   9.68522336E-001
   1.50000000E+002   9.71141870E-001   7.78529672E-001   9.71071374E-001
   1.55000000E+002   9.73389442E-001   7.78529782E-001   9.73329317E-001
   1.60000000E+002   9.75320724E-001   7.78529831E-001   9.75269207E-001
   1.65000000E+002   9.76954983E-001   7.78529843E-001   9.76910654E-001
   1.70000000E+002   9.78824077E-001   7.78529833E-001   9.78785757E-001
   1.75000000E+002   9.80285198E-001   7.78529810E-001   9.80251953E-001
   1.80000000E+002   9.81971941E-001   7.78529782E-001   9.81942976E-001
   1.85000000E+002   9.83063546E-001   7.78529750E-001   9.83038234E-001
   1.90000000E+002   9.84250174E-001   7.78529719E-001   9.84227973E-001
   1.95000000E+002   9.85288489E-001   7.78529688E-001   9.85268956E-001
   2.00000000E+002   9.86516202E-001   7.78529659E-001   9.86498957E-001
   2.05000000E+002   9.87267217E-001   7.78529631E-001   9.87251953E-001
   2.10000000E+002   9.87998371E-001   7.78529607E-001   9.87984821E-001
   2.15000000E+002   9.88848773E-001   7.78529584E-001   9.88836711E-001
   2.20000000E+002   9.89640883E-001   7.78529563E-001   9.89630117E-001
   2.25000000E+002   9.90221922E-001   7.78529544E-001   9.90212291E-001
   2.30000000E+002   9.90787884E-001   7.78529528E-001   9.90779246E-001
   2.35000000E+002   9.91402791E-001   7.78529512E-001   9.91395027E-001
   2.40000000E+002   9.91944315E-001   7.78529499E-001   9.91937321E-001
   2.45000000E+002   9.92469082E-001   7.78529487E-001   9.92462767E-001
