# ./jetvheto -in n3lo-fixed-order/H125-LHC13-R04-mb-0-mt-1725-xmur050-xmuf050-log.fxd -xQ 1.0 -out benchmarks-n3lo-smallR/H125-LHC13-R04-mb-0-mt-1725-xmur050-xmuf050-xQ100-N3LO+NNLLb.R0-0.5.res -scheme b -order 2 -ptmax 500.01 -small-r -fixed_order 3 -loop-mass t -R0 0.5
# process = H    
# collider = pp   
# rts =  13000.000
# M   =    125.000
# muR =     62.500
# muF =     62.500
# Q   =    125.000
# p   =      5.000
# include_c1_squared =   F
# loop_mass  = t   
# alphas(MZ) =    0.11800
# alphas(M) =    0.11264
# alphas(muR) =    0.12516
# Rjet =      0.400
# order = NNLL
# pdf name and set = PDF4LHC15_nnlo_mc.LHgrid,    0
# matching scheme = b
# total cross sections [nb] at LO, NLOdiff, NNLOdiff, N3LOdiff =     0.015885    0.020561    0.008998    0.001413
#----------------------------------------------------------------------
# the lines that follow give the jet-veto efficiencies as a function of pt
#         pt            matched eff      resummed eff     fixed-order eff
   2.00000000E+001   4.83498998E-001   5.96562544E-001   4.41643521E-001
   2.50000000E+001   5.68131854E-001   6.81383504E-001   5.29528045E-001
   3.00000000E+001   6.38988151E-001   7.39905504E-001   6.04131024E-001
   3.50000000E+001   6.94991662E-001   7.79881494E-001   6.63337130E-001
   4.00000000E+001   7.37923063E-001   8.06673875E-001   7.09302441E-001
   4.50000000E+001   7.75278134E-001   8.23932651E-001   7.49371437E-001
   5.00000000E+001   8.04994027E-001   8.34212560E-001   7.81702411E-001
   5.50000000E+001   8.30420443E-001   8.39352355E-001   8.09465789E-001
   6.00000000E+001   8.51098508E-001   8.40692124E-001   8.32379427E-001
   6.50000000E+001   8.70356838E-001   8.39236150E-001   8.53504482E-001
   7.00000000E+001   8.84789898E-001   8.35754517E-001   8.69854849E-001
   7.50000000E+001   8.97695526E-001   8.30840655E-001   8.84440584E-001
   8.00000000E+001   9.09363261E-001   8.24962606E-001   8.97583035E-001
   8.50000000E+001   9.19688237E-001   8.18496169E-001   9.09233323E-001
   9.00000000E+001   9.28759914E-001   8.11743846E-001   9.19502663E-001
   9.50000000E+001   9.35835861E-001   8.04946637E-001   9.27728280E-001
   1.00000000E+002   9.42682433E-001   7.98294703E-001   9.35563225E-001
   1.05000000E+002   9.47980490E-001   7.91931797E-001   9.41788367E-001
   1.10000000E+002   9.52888828E-001   7.85960432E-001   9.47503067E-001
   1.15000000E+002   9.57594781E-001   7.80447401E-001   9.52903001E-001
   1.20000000E+002   9.61848578E-001   7.75427433E-001   9.57766396E-001
   1.25000000E+002   9.65355782E-001   7.70909965E-001   9.61821780E-001
   1.30000000E+002   9.68376183E-001   7.66884940E-001   9.65320871E-001
   1.35000000E+002   9.71441981E-001   7.63328089E-001   9.68789919E-001
   1.40000000E+002   9.74254071E-001   7.60205836E-001   9.71951352E-001
   1.45000000E+002   9.76700690E-001   7.57479404E-001   9.74702884E-001
   1.50000000E+002   9.78582429E-001   7.55108046E-001   9.76854447E-001
   1.55000000E+002   9.80795908E-001   7.53051390E-001   9.79289601E-001
   1.60000000E+002   9.82785252E-001   7.51271030E-001   9.81470679E-001
   1.65000000E+002   9.83957512E-001   7.49731435E-001   9.82816919E-001
   1.70000000E+002   9.85545486E-001   7.48400539E-001   9.84547446E-001
   1.75000000E+002   9.87018005E-001   7.47249844E-001   9.86142527E-001
   1.80000000E+002   9.88133188E-001   7.46254281E-001   9.87365627E-001
   1.85000000E+002   9.89164103E-001   7.45392030E-001   9.88489569E-001
   1.90000000E+002   9.90234963E-001   7.44644232E-001   9.89639801E-001
   1.95000000E+002   9.91228138E-001   7.43994666E-001   9.90701722E-001
   2.00000000E+002   9.92107037E-001   7.43429434E-001   9.91640532E-001
   2.05000000E+002   9.92795065E-001   7.42936652E-001   9.92381271E-001
   2.10000000E+002   9.93492626E-001   7.42506179E-001   9.93124356E-001
   2.15000000E+002   9.94030184E-001   7.42129361E-001   9.93702166E-001
   2.20000000E+002   9.94817884E-001   7.41798818E-001   9.94523970E-001
   2.25000000E+002   9.95214080E-001   7.41508253E-001   9.94951215E-001
   2.30000000E+002   9.95712666E-001   7.41252288E-001   9.95476723E-001
   2.35000000E+002   9.96071549E-001   7.41026325E-001   9.95859519E-001
   2.40000000E+002   9.96467821E-001   7.40826429E-001   9.96276754E-001
   2.45000000E+002   9.96937227E-001   7.40649227E-001   9.96764480E-001
