# ./jetvheto -in n3lo-fixed-order/H125-LHC13-R04-heft-xmur050-xmuf025-log.fxd -xQ 0.50 -out benchmarks-n3lo-smallR/H125-LHC13-R04-heft-xmur050-xmuf025-xQ050-NNLO+NNLLb.R0-1.5.res -scheme b -order 2 -ptmax 500.01 -fixed_order 2 -small-r -R0 1.5
# process = H    
# collider = pp   
# rts =  13000.000
# M   =    125.000
# muR =     62.500
# muF =     31.250
# Q   =     62.500
# p   =      5.000
# include_c1_squared =   F
# loop_mass  = none
# alphas(MZ) =    0.11800
# alphas(M) =    0.11264
# alphas(muR) =    0.12516
# Rjet =      0.400
# order = NNLL
# pdf name and set = PDF4LHC15_nnlo_mc.LHgrid,    0
# matching scheme = b
# total cross sections [nb] at LO, NLOdiff, NNLOdiff, N3LOdiff =     0.013759    0.019772    0.009723    0.001827
#----------------------------------------------------------------------
# the lines that follow give the jet-veto efficiencies as a function of pt
#         pt            matched eff      resummed eff     fixed-order eff
   2.00000000E+001   4.09912225E-001   4.89242570E-001   3.03347416E-001
   2.50000000E+001   4.90196420E-001   5.67956564E-001   4.12634532E-001
   3.00000000E+001   5.55613500E-001   6.24215761E-001   4.98015849E-001
   3.50000000E+001   6.09937574E-001   6.63930909E-001   5.66752953E-001
   4.00000000E+001   6.55317011E-001   6.91508405E-001   6.22807461E-001
   4.50000000E+001   6.93885633E-001   7.10207973E-001   6.69430323E-001
   5.00000000E+001   7.26873326E-001   7.22529126E-001   7.08517244E-001
   5.50000000E+001   7.55488708E-001   7.30418734E-001   7.41750126E-001
   6.00000000E+001   7.80616893E-001   7.35352401E-001   7.70346009E-001
   6.50000000E+001   8.02611654E-001   7.38393099E-001   7.94925012E-001
   7.00000000E+001   8.22084083E-001   7.40261544E-001   8.16311276E-001
   7.50000000E+001   8.39183663E-001   7.41419219E-001   8.34822462E-001
   8.00000000E+001   8.54502635E-001   7.42149144E-001   8.51183870E-001
   8.50000000E+001   8.68117214E-001   7.42620109E-001   8.65569979E-001
   9.00000000E+001   8.80232018E-001   7.42931921E-001   8.78259020E-001
   9.50000000E+001   8.90988025E-001   7.43143833E-001   8.89445333E-001
   1.00000000E+002   9.00663352E-001   7.43291504E-001   8.99445930E-001
   1.05000000E+002   9.09348368E-001   7.43396817E-001   9.08378952E-001
   1.10000000E+002   9.17175795E-001   7.43473508E-001   9.16397123E-001
   1.15000000E+002   9.24221741E-001   7.43530409E-001   9.23591133E-001
   1.20000000E+002   9.30544949E-001   7.43573335E-001   9.30030232E-001
   1.25000000E+002   9.36180982E-001   7.43606200E-001   9.35757736E-001
   1.30000000E+002   9.41355900E-001   7.43631696E-001   9.41005460E-001
   1.35000000E+002   9.46047507E-001   7.43651709E-001   9.45755459E-001
   1.40000000E+002   9.50256383E-001   7.43667586E-001   9.50011496E-001
   1.45000000E+002   9.54139120E-001   7.43680304E-001   9.53932590E-001
   1.50000000E+002   9.57620676E-001   7.43690580E-001   9.57445543E-001
   1.55000000E+002   9.60805614E-001   7.43698949E-001   9.60656343E-001
   1.60000000E+002   9.63728849E-001   7.43705816E-001   9.63601007E-001
   1.65000000E+002   9.66411482E-001   7.43711489E-001   9.66301495E-001
   1.70000000E+002   9.68846461E-001   7.43716204E-001   9.68751422E-001
   1.75000000E+002   9.71094516E-001   7.43720146E-001   9.71012063E-001
   1.80000000E+002   9.73144375E-001   7.43723459E-001   9.73072563E-001
   1.85000000E+002   9.74992781E-001   7.43726259E-001   9.74930007E-001
   1.90000000E+002   9.76727713E-001   7.43728636E-001   9.76672650E-001
   1.95000000E+002   9.78324579E-001   7.43730663E-001   9.78276121E-001
   2.00000000E+002   9.79780515E-001   7.43732399E-001   9.79737734E-001
   2.05000000E+002   9.81151973E-001   7.43733892E-001   9.81114091E-001
   2.10000000E+002   9.82427908E-001   7.43735180E-001   9.82394269E-001
   2.15000000E+002   9.83574536E-001   7.43736296E-001   9.83544582E-001
   2.20000000E+002   9.84666685E-001   7.43737266E-001   9.84639942E-001
   2.25000000E+002   9.85674548E-001   7.43738112E-001   9.85650614E-001
   2.30000000E+002   9.86587253E-001   7.43738852E-001   9.86565781E-001
   2.35000000E+002   9.87452438E-001   7.43739501E-001   9.87433130E-001
   2.40000000E+002   9.88244344E-001   7.43740072E-001   9.88226945E-001
   2.45000000E+002   9.88991801E-001   7.43740576E-001   9.88976088E-001
