# ./jetvheto -in n3lo-fixed-order/H125-LHC13-R04-mb-475-mt-1725-xmur025-xmuf025-log.fxd -xQ 0.5 -out benchmarks-n3lo-smallR/H125-LHC13-R04-mb-475-mt-1725-xmur025-xmuf025-xQ050-NNLO+NNLLa.res -scheme a -order 2 -ptmax 500.01 -fixed_order 2 -loop-mass t+b
# process = H    
# collider = pp   
# rts =  13000.000
# M   =    125.000
# muR =     31.250
# muF =     31.250
# Q   =     62.500
# p   =      5.000
# include_c1_squared =   F
# loop_mass  = t+b 
# alphas(MZ) =    0.11800
# alphas(M) =    0.11264
# alphas(muR) =    0.14091
# Rjet =      0.400
# order = NNLL
# pdf name and set = PDF4LHC15_nnlo_mc.LHgrid,    0
# matching scheme = a
# total cross sections [nb] at LO, NLOdiff, NNLOdiff, N3LOdiff =     0.016156    0.025248    0.006043   -0.002471
#----------------------------------------------------------------------
# the lines that follow give the jet-veto efficiencies as a function of pt
#         pt            matched eff      resummed eff     fixed-order eff
   2.00000000E+001   4.51312286E-001   4.56646336E-001   4.14362726E-001
   2.50000000E+001   5.36755053E-001   5.24573470E-001   5.03382423E-001
   3.00000000E+001   6.04603496E-001   5.71894446E-001   5.74877333E-001
   3.50000000E+001   6.59589353E-001   6.04429089E-001   6.33647351E-001
   4.00000000E+001   7.04414064E-001   6.26366648E-001   6.82274657E-001
   4.50000000E+001   7.41527140E-001   6.40732465E-001   7.23088176E-001
   5.00000000E+001   7.72564158E-001   6.49797597E-001   7.57541843E-001
   5.50000000E+001   7.98814366E-001   6.55292374E-001   7.86825388E-001
   6.00000000E+001   8.21411789E-001   6.58495861E-001   8.11989633E-001
   6.50000000E+001   8.41049897E-001   6.60302123E-001   8.33719045E-001
   7.00000000E+001   8.58392750E-001   6.61295283E-001   8.52717321E-001
   7.50000000E+001   8.73394190E-001   6.61832481E-001   8.69004953E-001
   8.00000000E+001   8.86873963E-001   6.62120542E-001   8.83470860E-001
   8.50000000E+001   8.98862456E-001   6.62274345E-001   8.96210714E-001
   9.00000000E+001   9.09480477E-001   6.62356220E-001   9.07401203E-001
   9.50000000E+001   9.18805990E-001   6.62399577E-001   9.17163878E-001
   1.00000000E+002   9.27158692E-001   6.62422258E-001   9.25851957E-001
   1.05000000E+002   9.34688746E-001   6.62433817E-001   9.33640696E-001
   1.10000000E+002   9.41381933E-001   6.62439393E-001   9.40535003E-001
   1.15000000E+002   9.47431794E-001   6.62441771E-001   9.46742262E-001
   1.20000000E+002   9.52871144E-001   6.62442466E-001   9.52305676E-001
   1.25000000E+002   9.57688402E-001   6.62442303E-001   9.57221507E-001
   1.30000000E+002   9.62065428E-001   6.62441734E-001   9.61677464E-001
   1.35000000E+002   9.66000122E-001   6.62441000E-001   9.65675792E-001
   1.40000000E+002   9.69520706E-001   6.62440232E-001   9.69247988E-001
   1.45000000E+002   9.72772870E-001   6.62439493E-001   9.72542277E-001
   1.50000000E+002   9.75667897E-001   6.62438813E-001   9.75471914E-001
   1.55000000E+002   9.78288451E-001   6.62438203E-001   9.78121067E-001
   1.60000000E+002   9.80683520E-001   6.62437665E-001   9.80539901E-001
   1.65000000E+002   9.82845871E-001   6.62437193E-001   9.82722112E-001
   1.70000000E+002   9.84781817E-001   6.62436783E-001   9.84674723E-001
   1.75000000E+002   9.86546138E-001   6.62436428E-001   9.86453107E-001
   1.80000000E+002   9.88133790E-001   6.62436119E-001   9.88052673E-001
   1.85000000E+002   9.89556809E-001   6.62435852E-001   9.89485827E-001
   1.90000000E+002   9.90880890E-001   6.62435620E-001   9.90818567E-001
   1.95000000E+002   9.92089798E-001   6.62435419E-001   9.92034904E-001
   2.00000000E+002   9.93171433E-001   6.62435245E-001   9.93122932E-001
   2.05000000E+002   9.94172950E-001   6.62435093E-001   9.94129974E-001
   2.10000000E+002   9.95086190E-001   6.62434960E-001   9.95048004E-001
   2.15000000E+002   9.95873806E-001   6.62434844E-001   9.95839785E-001
   2.20000000E+002   9.96623288E-001   6.62434742E-001   9.96592901E-001
   2.25000000E+002   9.97298349E-001   6.62434653E-001   9.97271142E-001
   2.30000000E+002   9.97892393E-001   6.62434574E-001   9.97867975E-001
   2.35000000E+002   9.98446336E-001   6.62434505E-001   9.98424373E-001
   2.40000000E+002   9.98930576E-001   6.62434444E-001   9.98910778E-001
   2.45000000E+002   9.99368516E-001   6.62434390E-001   9.99350634E-001
