# ./jetvheto -in n3lo-fixed-order/H125-LHC13-R04-mb-475-mt-1725-xmur050-xmuf025-log.fxd -xQ 0.25 -out benchmarks-n3lo-smallR/H125-LHC13-R04-mb-475-mt-1725-xmur050-xmuf025-xQ025-NNLO+NNLLb.R0-1.5.res -scheme b -order 2 -ptmax 500.01 -fixed_order 2 -small-r -loop-mass t+b -R0 1.5
# process = H    
# collider = pp   
# rts =  13000.000
# M   =    125.000
# muR =     62.500
# muF =     31.250
# Q   =     31.250
# p   =      5.000
# include_c1_squared =   F
# loop_mass  = t+b 
# alphas(MZ) =    0.11800
# alphas(M) =    0.11264
# alphas(muR) =    0.12516
# Rjet =      0.400
# order = NNLL
# pdf name and set = PDF4LHC15_nnlo_mc.LHgrid,    0
# matching scheme = b
# total cross sections [nb] at LO, NLOdiff, NNLOdiff, N3LOdiff =     0.012926    0.020318    0.009723    0.001827
#----------------------------------------------------------------------
# the lines that follow give the jet-veto efficiencies as a function of pt
#         pt            matched eff      resummed eff     fixed-order eff
   2.00000000E+001   3.47389540E-001   4.63846908E-001   2.88336474E-001
   2.50000000E+001   4.28910457E-001   5.31318063E-001   3.97742417E-001
   3.00000000E+001   4.99891905E-001   5.71576554E-001   4.83975232E-001
   3.50000000E+001   5.62209073E-001   5.93706208E-001   5.54141575E-001
   4.00000000E+001   6.16083005E-001   6.05403594E-001   6.11905414E-001
   4.50000000E+001   6.62453416E-001   6.11608203E-001   6.60208815E-001
   5.00000000E+001   7.02286976E-001   6.14995012E-001   7.01026371E-001
   5.50000000E+001   7.36431954E-001   6.16916271E-001   7.35693044E-001
   6.00000000E+001   7.65961657E-001   6.18050468E-001   7.65510942E-001
   6.50000000E+001   7.91606464E-001   6.18745668E-001   7.91321316E-001
   7.00000000E+001   8.14127260E-001   6.19186568E-001   8.13940958E-001
   7.50000000E+001   8.33555148E-001   6.19474842E-001   8.33429617E-001
   8.00000000E+001   8.50837864E-001   6.19668504E-001   8.50751155E-001
   8.50000000E+001   8.66131492E-001   6.19801782E-001   8.66070164E-001
   9.00000000E+001   8.79618422E-001   6.19895499E-001   8.79574110E-001
   9.50000000E+001   8.91456621E-001   6.19962680E-001   8.91423954E-001
   1.00000000E+002   9.02019971E-001   6.20011681E-001   9.01995478E-001
   1.05000000E+002   9.11529551E-001   6.20047985E-001   9.11510900E-001
   1.10000000E+002   9.19980787E-001   6.20075267E-001   9.19966378E-001
   1.15000000E+002   9.27616755E-001   6.20096036E-001   9.27605481E-001
   1.20000000E+002   9.34509066E-001   6.20112036E-001   9.34500136E-001
   1.25000000E+002   9.40653269E-001   6.20124494E-001   9.40646112E-001
   1.30000000E+002   9.46223617E-001   6.20134294E-001   9.46217827E-001
   1.35000000E+002   9.51237180E-001   6.20142073E-001   9.51232453E-001
   1.40000000E+002   9.55755398E-001   6.20148302E-001   9.55751503E-001
   1.45000000E+002   9.59931589E-001   6.20153329E-001   9.59928357E-001
   1.50000000E+002   9.63680314E-001   6.20157415E-001   9.63677611E-001
   1.55000000E+002   9.67088927E-001   6.20160761E-001   9.67086651E-001
   1.60000000E+002   9.70210721E-001   6.20163518E-001   9.70208793E-001
   1.65000000E+002   9.73035934E-001   6.20165803E-001   9.73034291E-001
   1.70000000E+002   9.75595837E-001   6.20167708E-001   9.75594429E-001
   1.75000000E+002   9.77926234E-001   6.20169305E-001   9.77925021E-001
   1.80000000E+002   9.80041859E-001   6.20170650E-001   9.80040810E-001
   1.85000000E+002   9.81962020E-001   6.20171788E-001   9.81961107E-001
   1.90000000E+002   9.83745467E-001   6.20172756E-001   9.83744670E-001
   1.95000000E+002   9.85379150E-001   6.20173583E-001   9.85378453E-001
   2.00000000E+002   9.86862755E-001   6.20174292E-001   9.86862141E-001
   2.05000000E+002   9.88234485E-001   6.20174902E-001   9.88233944E-001
   2.10000000E+002   9.89490622E-001   6.20175429E-001   9.89490142E-001
   2.15000000E+002   9.90598806E-001   6.20175885E-001   9.90598380E-001
   2.20000000E+002   9.91647078E-001   6.20176283E-001   9.91646698E-001
   2.25000000E+002   9.92599737E-001   6.20176629E-001   9.92599398E-001
   2.30000000E+002   9.93457203E-001   6.20176932E-001   9.93456899E-001
   2.35000000E+002   9.94258117E-001   6.20177199E-001   9.94257844E-001
   2.40000000E+002   9.94969233E-001   6.20177433E-001   9.94968988E-001
   2.45000000E+002   9.95619112E-001   6.20177640E-001   9.95618890E-001
