# ./jetvheto -in n3lo-fixed-order/H125-LHC13-R04-mb-475-mt-1725-xmur050-xmuf050-log.fxd -xQ 0.333 -out benchmarks-n3lo-smallR/H125-LHC13-R04-mb-475-mt-1725-xmur050-xmuf050-xQ033-N3LO+NNLLb.R0-1.0.res -scheme b -order 2 -ptmax 500.01 -fixed_order 3 -small-r -loop-mass t+b -R0 1.0
# process = H    
# collider = pp   
# rts =  13000.000
# M   =    125.000
# muR =     62.500
# muF =     62.500
# Q   =     41.625
# p   =      5.000
# include_c1_squared =   F
# loop_mass  = t+b 
# alphas(MZ) =    0.11800
# alphas(M) =    0.11264
# alphas(muR) =    0.12516
# Rjet =      0.400
# order = NNLL
# pdf name and set = PDF4LHC15_nnlo_mc.LHgrid,    0
# matching scheme = b
# total cross sections [nb] at LO, NLOdiff, NNLOdiff, N3LOdiff =     0.014147    0.020254    0.008998    0.001413
#----------------------------------------------------------------------
# the lines that follow give the jet-veto efficiencies as a function of pt
#         pt            matched eff      resummed eff     fixed-order eff
   2.00000000E+001   4.31740326E-001   4.66781781E-001   4.22880362E-001
   2.50000000E+001   5.17462065E-001   5.39326620E-001   5.10871357E-001
   3.00000000E+001   5.90785675E-001   5.88495566E-001   5.86554172E-001
   3.50000000E+001   6.49813331E-001   6.20407007E-001   6.46974526E-001
   4.00000000E+001   6.96059787E-001   6.40252255E-001   6.94053894E-001
   4.50000000E+001   7.36905414E-001   6.52227645E-001   7.35572065E-001
   5.00000000E+001   7.69902205E-001   6.59376948E-001   7.68984657E-001
   5.50000000E+001   7.98698398E-001   6.63675210E-001   7.98072300E-001
   6.00000000E+001   8.22497724E-001   6.66307627E-001   8.22057983E-001
   6.50000000E+001   8.44466785E-001   6.67959249E-001   8.44160448E-001
   7.00000000E+001   8.61621757E-001   6.69022564E-001   8.61397413E-001
   7.50000000E+001   8.76954902E-001   6.69724677E-001   8.76789719E-001
   8.00000000E+001   8.90814781E-001   6.70199484E-001   8.90691953E-001
   8.50000000E+001   9.03142933E-001   6.70527727E-001   9.03050366E-001
   9.00000000E+001   9.13967199E-001   6.70759269E-001   9.13896477E-001
   9.50000000E+001   9.22694860E-001   6.70925625E-001   9.22639584E-001
   1.00000000E+002   9.30967470E-001   6.71047160E-001   9.30924075E-001
   1.05000000E+002   9.37653656E-001   6.71137312E-001   9.37618957E-001
   1.10000000E+002   9.43748849E-001   6.71205122E-001   9.43720915E-001
   1.15000000E+002   9.49524680E-001   6.71256778E-001   9.49502090E-001
   1.20000000E+002   9.54697284E-001   6.71296591E-001   9.54678868E-001
   1.25000000E+002   9.59019015E-001   6.71327608E-001   9.59003817E-001
   1.30000000E+002   9.62776744E-001   6.71352011E-001   9.62764111E-001
   1.35000000E+002   9.66500983E-001   6.71371388E-001   9.66490458E-001
   1.40000000E+002   9.69889521E-001   6.71386906E-001   9.69880698E-001
   1.45000000E+002   9.72814808E-001   6.71399431E-001   9.72807360E-001
   1.50000000E+002   9.75109256E-001   6.71409616E-001   9.75102905E-001
   1.55000000E+002   9.77714172E-001   6.71417954E-001   9.77708768E-001
   1.60000000E+002   9.80043414E-001   6.71424826E-001   9.80038790E-001
   1.65000000E+002   9.81494614E-001   6.71430522E-001   9.81490611E-001
   1.70000000E+002   9.83327776E-001   6.71435271E-001   9.83324317E-001
   1.75000000E+002   9.85052293E-001   6.71439252E-001   9.85049293E-001
   1.80000000E+002   9.86370183E-001   6.71442605E-001   9.86367565E-001
   1.85000000E+002   9.87586252E-001   6.71445444E-001   9.87583960E-001
   1.90000000E+002   9.88821880E-001   6.71447858E-001   9.88819869E-001
   1.95000000E+002   9.89960001E-001   6.71449919E-001   9.89958231E-001
   2.00000000E+002   9.90962971E-001   6.71451686E-001   9.90961409E-001
   2.05000000E+002   9.91764112E-001   6.71453207E-001   9.91762726E-001
   2.10000000E+002   9.92562110E-001   6.71454520E-001   9.92560879E-001
   2.15000000E+002   9.93189267E-001   6.71455659E-001   9.93188169E-001
   2.20000000E+002   9.94073414E-001   6.71456650E-001   9.94072436E-001
   2.25000000E+002   9.94534935E-001   6.71457514E-001   9.94534058E-001
   2.30000000E+002   9.95095484E-001   6.71458270E-001   9.95094697E-001
   2.35000000E+002   9.95513236E-001   6.71458934E-001   9.95512527E-001
   2.40000000E+002   9.95961274E-001   6.71459518E-001   9.95960635E-001
   2.45000000E+002   9.96475134E-001   6.71460034E-001   9.96474558E-001
