# ./jetvheto -in n3lo-fixed-order/H125-LHC13-R04-mb-0-mt-1725-xmur050-xmuf050-log.fxd -xQ 0.5 -out benchmarks-n3lo-smallR/H125-LHC13-R04-mb-0-mt-1725-xmur050-xmuf050-xQ050-N3LO+NNLLa.R0-1.0.res -scheme a -order 2 -ptmax 500.01 -small-r -fixed_order 3 -loop-mass t -R0 1.0
# process = H    
# collider = pp   
# rts =  13000.000
# M   =    125.000
# muR =     62.500
# muF =     62.500
# Q   =     62.500
# p   =      5.000
# include_c1_squared =   F
# loop_mass  = t   
# alphas(MZ) =    0.11800
# alphas(M) =    0.11264
# alphas(muR) =    0.12516
# Rjet =      0.400
# order = NNLL
# pdf name and set = PDF4LHC15_nnlo_mc.LHgrid,    0
# matching scheme = a
# total cross sections [nb] at LO, NLOdiff, NNLOdiff, N3LOdiff =     0.015885    0.020561    0.008998    0.001413
#----------------------------------------------------------------------
# the lines that follow give the jet-veto efficiencies as a function of pt
#         pt            matched eff      resummed eff     fixed-order eff
   2.00000000E+001   4.67488709E-001   5.02926237E-001   4.58478332E-001
   2.50000000E+001   5.53164755E-001   5.80998431E-001   5.43713081E-001
   3.00000000E+001   6.24546681E-001   6.36110805E-001   6.16066731E-001
   3.50000000E+001   6.81163757E-001   6.74545852E-001   6.73487735E-001
   4.00000000E+001   7.24965680E-001   7.00857673E-001   7.18067162E-001
   4.50000000E+001   7.62790724E-001   7.18396492E-001   7.56928051E-001
   5.00000000E+001   7.93166733E-001   7.29716189E-001   7.88284226E-001
   5.50000000E+001   8.19153999E-001   7.36781275E-001   8.15210520E-001
   6.00000000E+001   8.40566451E-001   7.41063409E-001   8.37433297E-001
   6.50000000E+001   8.60371435E-001   7.43604393E-001   8.57921417E-001
   7.00000000E+001   8.75688091E-001   7.45097700E-001   8.73778810E-001
   7.50000000E+001   8.89406244E-001   7.45977447E-001   8.87924776E-001
   8.00000000E+001   9.01821894E-001   7.46502507E-001   9.00670973E-001
   8.50000000E+001   9.12867599E-001   7.46822394E-001   9.11969998E-001
   9.00000000E+001   9.22633784E-001   7.47022440E-001   9.21929710E-001
   9.50000000E+001   9.30463258E-001   7.47151176E-001   9.29907319E-001
   1.00000000E+002   9.37948201E-001   7.47236460E-001   9.37506036E-001
   1.05000000E+002   9.43897734E-001   7.47294566E-001   9.43543485E-001
   1.10000000E+002   9.49371828E-001   7.47335211E-001   9.49085884E-001
   1.15000000E+002   9.54555457E-001   7.47364332E-001   9.54323006E-001
   1.20000000E+002   9.59230066E-001   7.47385655E-001   9.59039767E-001
   1.25000000E+002   9.63129743E-001   7.47401571E-001   9.62972878E-001
   1.30000000E+002   9.66496573E-001   7.47413658E-001   9.66366470E-001
   1.35000000E+002   9.69839499E-001   7.47422978E-001   9.69730923E-001
   1.40000000E+002   9.72888169E-001   7.47430261E-001   9.72797037E-001
   1.45000000E+002   9.75542513E-001   7.47436023E-001   9.75465608E-001
   1.50000000E+002   9.77617548E-001   7.47440629E-001   9.77552300E-001
   1.55000000E+002   9.79969654E-001   7.47444349E-001   9.79914033E-001
   1.60000000E+002   9.82076986E-001   7.47447377E-001   9.82029350E-001
   1.65000000E+002   9.83375979E-001   7.47449864E-001   9.83335000E-001
   1.70000000E+002   9.85048751E-001   7.47451920E-001   9.85013351E-001
   1.75000000E+002   9.86591042E-001   7.47453631E-001   9.86560338E-001
   1.80000000E+002   9.87773290E-001   7.47455064E-001   9.87746562E-001
   1.85000000E+002   9.88859969E-001   7.47456271E-001   9.88836616E-001
   1.90000000E+002   9.89972642E-001   7.47457293E-001   9.89952168E-001
   1.95000000E+002   9.91000078E-001   7.47458163E-001   9.90982071E-001
   2.00000000E+002   9.91908462E-001   7.47458906E-001   9.91892575E-001
   2.05000000E+002   9.92625040E-001   7.47459543E-001   9.92610981E-001
   2.10000000E+002   9.93344136E-001   7.47460093E-001   9.93331661E-001
   2.15000000E+002   9.93903151E-001   7.47460568E-001   9.93892050E-001
   2.20000000E+002   9.94698979E-001   7.47460981E-001   9.94689076E-001
   2.25000000E+002   9.95112296E-001   7.47461341E-001   9.95103439E-001
   2.30000000E+002   9.95621043E-001   7.47461655E-001   9.95613102E-001
   2.35000000E+002   9.95991492E-001   7.47461930E-001   9.95984357E-001
   2.40000000E+002   9.96395438E-001   7.47462173E-001   9.96389013E-001
   2.45000000E+002   9.96867831E-001   7.47462386E-001   9.96862033E-001
