# ./jetvheto -in n3lo-fixed-order/H125-LHC13-R04-mb-0-mt-1725-xmur025-xmuf025-log.fxd -xQ 0.25 -out benchmarks-n3lo-smallR/H125-LHC13-R04-mb-0-mt-1725-xmur025-xmuf025-xQ025-NNLO+NNLLa.res -scheme a -order 2 -ptmax 500.01 -fixed_order 2 -loop-mass t
# process = H    
# collider = pp   
# rts =  13000.000
# M   =    125.000
# muR =     31.250
# muF =     31.250
# Q   =     31.250
# p   =      5.000
# include_c1_squared =   F
# loop_mass  = t   
# alphas(MZ) =    0.11800
# alphas(M) =    0.11264
# alphas(muR) =    0.14091
# Rjet =      0.400
# order = NNLL
# pdf name and set = PDF4LHC15_nnlo_mc.LHgrid,    0
# matching scheme = a
# total cross sections [nb] at LO, NLOdiff, NNLOdiff, N3LOdiff =     0.018140    0.025356    0.006043   -0.002471
#----------------------------------------------------------------------
# the lines that follow give the jet-veto efficiencies as a function of pt
#         pt            matched eff      resummed eff     fixed-order eff
   2.00000000E+001   4.37534145E-001   4.43698901E-001   4.30690105E-001
   2.50000000E+001   5.24428082E-001   5.07510197E-001   5.20586602E-001
   3.00000000E+001   5.94124454E-001   5.45375955E-001   5.92014950E-001
   3.50000000E+001   6.51194733E-001   5.66111229E-001   6.50064662E-001
   4.00000000E+001   6.98308081E-001   5.77045622E-001   6.97703316E-001
   4.50000000E+001   7.37630152E-001   5.82837563E-001   7.37303585E-001
   5.00000000E+001   7.70800695E-001   5.85996662E-001   7.70617108E-001
   5.50000000E+001   7.98916082E-001   5.87787953E-001   7.98809609E-001
   6.00000000E+001   8.23014782E-001   5.88845149E-001   8.22950709E-001
   6.50000000E+001   8.43791454E-001   5.89493050E-001   8.43751279E-001
   7.00000000E+001   8.61823173E-001   5.89903913E-001   8.61797081E-001
   7.50000000E+001   8.77312606E-001   5.90172530E-001   8.77294866E-001
   8.00000000E+001   8.91032815E-001   5.90352980E-001   8.91020454E-001
   8.50000000E+001   9.02986965E-001   5.90477161E-001   9.02978081E-001
   9.00000000E+001   9.13545913E-001   5.90564480E-001   9.13539336E-001
   9.50000000E+001   9.22750140E-001   5.90627073E-001   9.22745123E-001
   1.00000000E+002   9.30971826E-001   5.90672727E-001   9.30967926E-001
   1.05000000E+002   9.38299263E-001   5.90706552E-001   9.38296175E-001
   1.10000000E+002   9.44772101E-001   5.90731971E-001   9.44769617E-001
   1.15000000E+002   9.50611396E-001   5.90751321E-001   9.50609371E-001
   1.20000000E+002   9.55809433E-001   5.90766227E-001   9.55807756E-001
   1.25000000E+002   9.60374286E-001   5.90777835E-001   9.60372878E-001
   1.30000000E+002   9.64531792E-001   5.90786965E-001   9.64530604E-001
   1.35000000E+002   9.68262100E-001   5.90794213E-001   9.68261090E-001
   1.40000000E+002   9.71615709E-001   5.90800016E-001   9.71614842E-001
   1.45000000E+002   9.74680765E-001   5.90804699E-001   9.74680018E-001
   1.50000000E+002   9.77396884E-001   5.90808507E-001   9.77396235E-001
   1.55000000E+002   9.79852083E-001   5.90811624E-001   9.79851516E-001
   1.60000000E+002   9.82095442E-001   5.90814192E-001   9.82094946E-001
   1.65000000E+002   9.84129017E-001   5.90816321E-001   9.84128581E-001
   1.70000000E+002   9.85932333E-001   5.90818096E-001   9.85931948E-001
   1.75000000E+002   9.87581454E-001   5.90819584E-001   9.87581113E-001
   1.80000000E+002   9.89076070E-001   5.90820837E-001   9.89075767E-001
   1.85000000E+002   9.90410148E-001   5.90821898E-001   9.90409877E-001
   1.90000000E+002   9.91647723E-001   5.90822800E-001   9.91647482E-001
   1.95000000E+002   9.92783161E-001   5.90823570E-001   9.92782944E-001
   2.00000000E+002   9.93786457E-001   5.90824230E-001   9.93786262E-001
   2.05000000E+002   9.94721777E-001   5.90824799E-001   9.94721603E-001
   2.10000000E+002   9.95580880E-001   5.90825289E-001   9.95580722E-001
   2.15000000E+002   9.96308696E-001   5.90825715E-001   9.96308554E-001
   2.20000000E+002   9.97002159E-001   5.90826085E-001   9.97002030E-001
   2.25000000E+002   9.97641185E-001   5.90826408E-001   9.97641068E-001
   2.30000000E+002   9.98194683E-001   5.90826690E-001   9.98194576E-001
   2.35000000E+002   9.98698194E-001   5.90826938E-001   9.98698098E-001
   2.40000000E+002   9.99145174E-001   5.90827157E-001   9.99145086E-001
   2.45000000E+002   9.99563660E-001   5.90827349E-001   9.99563579E-001
