# ./jetvheto -in n3lo-fixed-order/H125-LHC13-R04-mb-475-mt-1725-xmur100-xmuf100-log.fxd -xQ 0.125 -out benchmarks-n3lo-smallR/H125-LHC13-R04-mb-475-mt-1725-xmur100-xmuf100-xQ0125-N3LO+NNLLa.R0-2.0.res -scheme a -order 2 -ptmax 500.01 -fixed_order 3 -small-r -loop-mass t+b -R0 2.0
# process = H    
# collider = pp   
# rts =  13000.000
# M   =    125.000
# muR =    125.000
# muF =    125.000
# Q   =     15.625
# p   =      5.000
# include_c1_squared =   F
# loop_mass  = t+b 
# alphas(MZ) =    0.11800
# alphas(M) =    0.11264
# alphas(muR) =    0.11264
# Rjet =      0.400
# order = NNLL
# pdf name and set = PDF4LHC15_nnlo_mc.LHgrid,    0
# matching scheme = a
# total cross sections [nb] at LO, NLOdiff, NNLOdiff, N3LOdiff =     0.012292    0.016994    0.010146    0.003834
#----------------------------------------------------------------------
# the lines that follow give the jet-veto efficiencies as a function of pt
#         pt            matched eff      resummed eff     fixed-order eff
   2.00000000E+001   4.50854776E-001   4.99133910E-001   4.51319368E-001
   2.50000000E+001   5.36450288E-001   5.14212124E-001   5.36825698E-001
   3.00000000E+001   6.08599297E-001   5.19116742E-001   6.08858675E-001
   3.50000000E+001   6.64790809E-001   5.20953478E-001   6.64947540E-001
   4.00000000E+001   7.10260225E-001   5.21734801E-001   7.10355778E-001
   4.50000000E+001   7.47396976E-001   5.22103260E-001   7.47456588E-001
   5.00000000E+001   7.78939454E-001   5.22291959E-001   7.78978104E-001
   5.50000000E+001   8.05904916E-001   5.22395267E-001   8.05930820E-001
   6.00000000E+001   8.28699315E-001   5.22455014E-001   8.28717070E-001
   6.50000000E+001   8.49051758E-001   5.22491187E-001   8.49064316E-001
   7.00000000E+001   8.66258996E-001   5.22513953E-001   8.66268025E-001
   7.50000000E+001   8.80524314E-001   5.22528765E-001   8.80530885E-001
   8.00000000E+001   8.93111515E-001   5.22538683E-001   8.93116387E-001
   8.50000000E+001   9.04458528E-001   5.22545494E-001   9.04462211E-001
   9.00000000E+001   9.14190679E-001   5.22550275E-001   9.14193494E-001
   9.50000000E+001   9.23080295E-001   5.22553700E-001   9.23082480E-001
   1.00000000E+002   9.30509521E-001   5.22556195E-001   9.30511231E-001
   1.05000000E+002   9.37199489E-001   5.22558043E-001   9.37200842E-001
   1.10000000E+002   9.43197387E-001   5.22559431E-001   9.43198469E-001
   1.15000000E+002   9.48586757E-001   5.22560487E-001   9.48587632E-001
   1.20000000E+002   9.53237178E-001   5.22561301E-001   9.53237889E-001
   1.25000000E+002   9.57314688E-001   5.22561934E-001   9.57315271E-001
   1.30000000E+002   9.61366336E-001   5.22562432E-001   9.61366818E-001
   1.35000000E+002   9.64936226E-001   5.22562828E-001   9.64936627E-001
   1.40000000E+002   9.67928854E-001   5.22563144E-001   9.67929190E-001
   1.45000000E+002   9.70799154E-001   5.22563400E-001   9.70799436E-001
   1.50000000E+002   9.73231679E-001   5.22563607E-001   9.73231918E-001
   1.55000000E+002   9.75844836E-001   5.22563777E-001   9.75845039E-001
   1.60000000E+002   9.77615468E-001   5.22563917E-001   9.77615642E-001
   1.65000000E+002   9.79523536E-001   5.22564033E-001   9.79523686E-001
   1.70000000E+002   9.81190664E-001   5.22564130E-001   9.81190793E-001
   1.75000000E+002   9.82813351E-001   5.22564211E-001   9.82813463E-001
   1.80000000E+002   9.84292615E-001   5.22564280E-001   9.84292712E-001
   1.85000000E+002   9.85629506E-001   5.22564337E-001   9.85629591E-001
   1.90000000E+002   9.86565961E-001   5.22564387E-001   9.86566035E-001
   1.95000000E+002   9.87769546E-001   5.22564429E-001   9.87769612E-001
   2.00000000E+002   9.88791220E-001   5.22564465E-001   9.88791277E-001
   2.05000000E+002   9.89667354E-001   5.22564496E-001   9.89667405E-001
   2.10000000E+002   9.90458818E-001   5.22564522E-001   9.90458863E-001
   2.15000000E+002   9.91323265E-001   5.22564546E-001   9.91323305E-001
   2.20000000E+002   9.91955556E-001   5.22564566E-001   9.91955592E-001
   2.25000000E+002   9.92619552E-001   5.22564583E-001   9.92619584E-001
   2.30000000E+002   9.93235903E-001   5.22564599E-001   9.93235932E-001
   2.35000000E+002   9.93804777E-001   5.22564612E-001   9.93804803E-001
   2.40000000E+002   9.94192716E-001   5.22564624E-001   9.94192740E-001
   2.45000000E+002   9.94713589E-001   5.22564635E-001   9.94713610E-001
