# ./jetvheto -in n3lo-fixed-order/H125-LHC13-R04-heft-xmur050-xmuf100-log.fxd -xQ 0.50 -out benchmarks-n3lo-smallR/H125-LHC13-R04-heft-xmur050-xmuf100-xQ050-NNLO+NNLLb.R0-2.0.res -scheme b -order 2 -ptmax 500.01 -fixed_order 2 -small-r -R0 2.0
# process = H    
# collider = pp   
# rts =  13000.000
# M   =    125.000
# muR =     62.500
# muF =    125.000
# Q   =     62.500
# p   =      5.000
# include_c1_squared =   F
# loop_mass  = none
# alphas(MZ) =    0.11800
# alphas(M) =    0.11264
# alphas(muR) =    0.12516
# Rjet =      0.400
# order = NNLL
# pdf name and set = PDF4LHC15_nnlo_mc.LHgrid,    0
# matching scheme = b
# total cross sections [nb] at LO, NLOdiff, NNLOdiff, N3LOdiff =     0.015984    0.019551    0.008553    0.000949
#----------------------------------------------------------------------
# the lines that follow give the jet-veto efficiencies as a function of pt
#         pt            matched eff      resummed eff     fixed-order eff
   2.00000000E+001   4.38222274E-001   5.25821986E-001   3.30722344E-001
   2.50000000E+001   5.17651766E-001   5.98032318E-001   4.39170235E-001
   3.00000000E+001   5.82086711E-001   6.48280986E-001   5.23501586E-001
   3.50000000E+001   6.34856336E-001   6.82801592E-001   5.90556147E-001
   4.00000000E+001   6.78876939E-001   7.06005344E-001   6.45199559E-001
   4.50000000E+001   7.15802500E-001   7.21124128E-001   6.90187147E-001
   5.00000000E+001   7.47267658E-001   7.30596398E-001   7.27824300E-001
   5.50000000E+001   7.74258180E-001   7.36274104E-001   7.59540506E-001
   6.00000000E+001   7.97826655E-001   7.39528907E-001   7.86708386E-001
   6.50000000E+001   8.18492773E-001   7.41319845E-001   8.10090885E-001
   7.00000000E+001   8.36572758E-001   7.42270487E-001   8.30207918E-001
   7.50000000E+001   8.52590901E-001   7.42759026E-001   8.47745690E-001
   8.00000000E+001   8.66801771E-001   7.43001767E-001   8.63089412E-001
   8.50000000E+001   8.79325693E-001   7.43116966E-001   8.76459376E-001
   9.00000000E+001   8.90590112E-001   7.43167432E-001   8.88358331E-001
   9.50000000E+001   9.00551651E-001   7.43185827E-001   8.98798938E-001
   1.00000000E+002   9.09450946E-001   7.43188894E-001   9.08062455E-001
   1.05000000E+002   9.17425033E-001   7.43185102E-001   9.16315690E-001
   1.10000000E+002   9.24520034E-001   7.43178660E-001   9.23626436E-001
   1.15000000E+002   9.30951036E-001   7.43171601E-001   9.30225524E-001
   1.20000000E+002   9.36697034E-001   7.43164850E-001   9.36103577E-001
   1.25000000E+002   9.41896254E-001   7.43158782E-001   9.41407389E-001
   1.30000000E+002   9.46577233E-001   7.43153500E-001   9.46171829E-001
   1.35000000E+002   9.50847896E-001   7.43148983E-001   9.50509572E-001
   1.40000000E+002   9.54642304E-001   7.43145157E-001   9.54358286E-001
   1.45000000E+002   9.58181273E-001   7.43141932E-001   9.57941497E-001
   1.50000000E+002   9.61307401E-001   7.43139220E-001   9.61103910E-001
   1.55000000E+002   9.64181524E-001   7.43136938E-001   9.64007962E-001
   1.60000000E+002   9.66830865E-001   7.43135016E-001   9.66682128E-001
   1.65000000E+002   9.69220773E-001   7.43133394E-001   9.69092742E-001
   1.70000000E+002   9.71439160E-001   7.43132022E-001   9.71328485E-001
   1.75000000E+002   9.73431422E-001   7.43130859E-001   9.73335368E-001
   1.80000000E+002   9.75286976E-001   7.43129868E-001   9.75203293E-001
   1.85000000E+002   9.76965788E-001   7.43129023E-001   9.76892621E-001
   1.90000000E+002   9.78520173E-001   7.43128299E-001   9.78455982E-001
   1.95000000E+002   9.79981805E-001   7.43127677E-001   9.79925303E-001
   2.00000000E+002   9.81308232E-001   7.43127141E-001   9.81258343E-001
   2.05000000E+002   9.82544269E-001   7.43126678E-001   9.82500089E-001
   2.10000000E+002   9.83671427E-001   7.43126276E-001   9.83632192E-001
   2.15000000E+002   9.84694335E-001   7.43125927E-001   9.84659397E-001
   2.20000000E+002   9.85663704E-001   7.43125622E-001   9.85632513E-001
   2.25000000E+002   9.86554096E-001   7.43125356E-001   9.86526181E-001
   2.30000000E+002   9.87383260E-001   7.43125122E-001   9.87358217E-001
   2.35000000E+002   9.88174953E-001   7.43124917E-001   9.88152435E-001
   2.40000000E+002   9.88883130E-001   7.43124736E-001   9.88862839E-001
   2.45000000E+002   9.89555242E-001   7.43124575E-001   9.89536919E-001
