# ./jetvheto -in n3lo-fixed-order/H125-LHC13-R04-heft-xmur050-xmuf050-log.fxd -xQ 0.333 -out benchmarks-n3lo-smallR/H125-LHC13-R04-heft-xmur050-xmuf050-xQ033-N3LO+NNLLa.res -scheme a -order 2 -ptmax 500.01 -fixed_order 3
# process = H    
# collider = pp   
# rts =  13000.000
# M   =    125.000
# muR =     62.500
# muF =     62.500
# Q   =     41.625
# p   =      5.000
# include_c1_squared =   F
# loop_mass  = none
# alphas(MZ) =    0.11800
# alphas(M) =    0.11264
# alphas(muR) =    0.12516
# Rjet =      0.400
# order = NNLL
# pdf name and set = PDF4LHC15_nnlo_mc.LHgrid,    0
# matching scheme = a
# total cross sections [nb] at LO, NLOdiff, NNLOdiff, N3LOdiff =     0.015055    0.019611    0.008998    0.001413
#----------------------------------------------------------------------
# the lines that follow give the jet-veto efficiencies as a function of pt
#         pt            matched eff      resummed eff     fixed-order eff
   2.00000000E+001   4.49747028E-001   4.84774485E-001   4.50065620E-001
   2.50000000E+001   5.35842316E-001   5.61327375E-001   5.35117843E-001
   3.00000000E+001   6.08475223E-001   6.13243384E-001   6.07875407E-001
   3.50000000E+001   6.66102341E-001   6.46949498E-001   6.65471707E-001
   4.00000000E+001   7.10923034E-001   6.67916263E-001   7.10255567E-001
   4.50000000E+001   7.49977170E-001   6.80571096E-001   7.49462038E-001
   5.00000000E+001   7.81295621E-001   6.88127306E-001   7.80889863E-001
   5.50000000E+001   8.08552565E-001   6.92670783E-001   8.08255100E-001
   6.00000000E+001   8.30878317E-001   6.95453630E-001   8.30655804E-001
   6.50000000E+001   8.51518734E-001   6.97199741E-001   8.51359759E-001
   7.00000000E+001   8.67522726E-001   6.98323935E-001   8.67401068E-001
   7.50000000E+001   8.81813131E-001   6.99066270E-001   8.81721105E-001
   8.00000000E+001   8.94700454E-001   6.99568285E-001   8.94630807E-001
   8.50000000E+001   9.06128884E-001   6.99915343E-001   9.06075690E-001
   9.00000000E+001   9.16235368E-001   7.00160160E-001   9.16194285E-001
   9.50000000E+001   9.24335459E-001   7.00336053E-001   9.24302841E-001
   1.00000000E+002   9.31995049E-001   7.00464558E-001   9.31969203E-001
   1.05000000E+002   9.38134935E-001   7.00559880E-001   9.38114001E-001
   1.10000000E+002   9.43796766E-001   7.00631579E-001   9.43779750E-001
   1.15000000E+002   9.49116809E-001   7.00686198E-001   9.49102964E-001
   1.20000000E+002   9.53916615E-001   7.00728294E-001   9.53905269E-001
   1.25000000E+002   9.57877780E-001   7.00761089E-001   9.57868349E-001
   1.30000000E+002   9.61341157E-001   7.00786893E-001   9.61333266E-001
   1.35000000E+002   9.64804510E-001   7.00807381E-001   9.64797911E-001
   1.40000000E+002   9.67939768E-001   7.00823789E-001   9.67934219E-001
   1.45000000E+002   9.70628424E-001   7.00837033E-001   9.70623723E-001
   1.50000000E+002   9.72729419E-001   7.00847801E-001   9.72725389E-001
   1.55000000E+002   9.75131218E-001   7.00856618E-001   9.75127782E-001
   1.60000000E+002   9.77306218E-001   7.00863883E-001   9.77303274E-001
   1.65000000E+002   9.78638054E-001   7.00869907E-001   9.78635491E-001
   1.70000000E+002   9.80370091E-001   7.00874928E-001   9.80367872E-001
   1.75000000E+002   9.81992347E-001   7.00879137E-001   9.81990419E-001
   1.80000000E+002   9.83242223E-001   7.00882683E-001   9.83240537E-001
   1.85000000E+002   9.84385663E-001   7.00885685E-001   9.84384183E-001
   1.90000000E+002   9.85565726E-001   7.00888237E-001   9.85564426E-001
   1.95000000E+002   9.86653606E-001   7.00890416E-001   9.86652461E-001
   2.00000000E+002   9.87624679E-001   7.00892284E-001   9.87623667E-001
   2.05000000E+002   9.88412495E-001   7.00893892E-001   9.88411596E-001
   2.10000000E+002   9.89211383E-001   7.00895282E-001   9.89210583E-001
   2.15000000E+002   9.89833935E-001   7.00896486E-001   9.89833220E-001
   2.20000000E+002   9.90709336E-001   7.00897533E-001   9.90708699E-001
   2.25000000E+002   9.91188479E-001   7.00898447E-001   9.91187907E-001
   2.30000000E+002   9.91769060E-001   7.00899246E-001   9.91768546E-001
   2.35000000E+002   9.92213671E-001   7.00899948E-001   9.92213208E-001
   2.40000000E+002   9.92690962E-001   7.00900566E-001   9.92690544E-001
   2.45000000E+002   9.93243160E-001   7.00901111E-001   9.93242783E-001
