# ./jetvheto -in n3lo-fixed-order/H125-LHC13-R04-mb-475-mt-1725-xmur100-xmuf050-log.fxd -xQ 0.5 -out benchmarks-n3lo-smallR/H125-LHC13-R04-mb-475-mt-1725-xmur100-xmuf050-xQ050-NNLO+NNLLb.R0-0.5.res -scheme b -order 2 -ptmax 500.01 -fixed_order 2 -small-r -loop-mass t+b -R0 0.5
# process = H    
# collider = pp   
# rts =  13000.000
# M   =    125.000
# muR =    125.000
# muF =     62.500
# Q   =     62.500
# p   =      5.000
# include_c1_squared =   F
# loop_mass  = t+b 
# alphas(MZ) =    0.11800
# alphas(M) =    0.11264
# alphas(muR) =    0.11264
# Rjet =      0.400
# order = NNLL
# pdf name and set = PDF4LHC15_nnlo_mc.LHgrid,    0
# matching scheme = b
# total cross sections [nb] at LO, NLOdiff, NNLOdiff, N3LOdiff =     0.011575    0.016866    0.010424    0.004163
#----------------------------------------------------------------------
# the lines that follow give the jet-veto efficiencies as a function of pt
#         pt            matched eff      resummed eff     fixed-order eff
   2.00000000E+001   3.84707403E-001   4.83140424E-001   3.01797175E-001
   2.50000000E+001   4.69018308E-001   5.65065463E-001   4.12444386E-001
   3.00000000E+001   5.38722719E-001   6.23923023E-001   4.98409551E-001
   3.50000000E+001   5.96782475E-001   6.65690503E-001   5.67166648E-001
   4.00000000E+001   6.45340705E-001   6.94832829E-001   6.23168191E-001
   4.50000000E+001   6.86690870E-001   7.14696784E-001   6.69933084E-001
   5.00000000E+001   7.21978035E-001   7.27871065E-001   7.09277749E-001
   5.50000000E+001   7.52252967E-001   7.36375488E-001   7.42632321E-001
   6.00000000E+001   7.78538764E-001   7.41747928E-001   7.71258431E-001
   6.50000000E+001   8.01455041E-001   7.45099002E-001   7.95947126E-001
   7.00000000E+001   8.21685826E-001   7.47186316E-001   8.17511462E-001
   7.50000000E+001   8.39403791E-001   7.48498645E-001   8.36227208E-001
   8.00000000E+001   8.55165214E-001   7.49338325E-001   8.52733853E-001
   8.50000000E+001   8.69229753E-001   7.49887736E-001   8.67355329E-001
   9.00000000E+001   8.81644633E-001   7.50256260E-001   8.80188173E-001
   9.50000000E+001   8.92684573E-001   7.50509671E-001   8.91543074E-001
   1.00000000E+002   9.02614239E-001   7.50688072E-001   9.01711868E-001
   1.05000000E+002   9.11507888E-001   7.50816410E-001   9.10788355E-001
   1.10000000E+002   9.19437287E-001   7.50910552E-001   9.18858861E-001
   1.15000000E+002   9.26623623E-001   7.50980824E-001   9.26154870E-001
   1.20000000E+002   9.33074159E-001   7.51034101E-001   9.32691413E-001
   1.25000000E+002   9.38958638E-001   7.51075058E-001   9.38643846E-001
   1.30000000E+002   9.44220187E-001   7.51106938E-001   9.43959515E-001
   1.35000000E+002   9.48986558E-001   7.51132031E-001   9.48769326E-001
   1.40000000E+002   9.53345834E-001   7.51151984E-001   9.53163692E-001
   1.45000000E+002   9.57291300E-001   7.51167996E-001   9.57137703E-001
   1.50000000E+002   9.60908252E-001   7.51180953E-001   9.60778030E-001
   1.55000000E+002   9.64195492E-001   7.51191520E-001   9.64084524E-001
   1.60000000E+002   9.67185752E-001   7.51200199E-001   9.67090738E-001
   1.65000000E+002   9.69899992E-001   7.51207375E-001   9.69818268E-001
   1.70000000E+002   9.72373697E-001   7.51213343E-001   9.72303105E-001
   1.75000000E+002   9.74668164E-001   7.51218337E-001   9.74606939E-001
   1.80000000E+002   9.76733905E-001   7.51222537E-001   9.76680599E-001
   1.85000000E+002   9.78657119E-001   7.51226087E-001   9.78610537E-001
   1.90000000E+002   9.80409787E-001   7.51229102E-001   9.80368941E-001
   1.95000000E+002   9.82014175E-001   7.51231674E-001   9.81978238E-001
   2.00000000E+002   9.83480867E-001   7.51233877E-001   9.83449152E-001
   2.05000000E+002   9.84834607E-001   7.51235772E-001   9.84806533E-001
   2.10000000E+002   9.86052415E-001   7.51237408E-001   9.86027493E-001
   2.15000000E+002   9.87206571E-001   7.51238826E-001   9.87184387E-001
   2.20000000E+002   9.88268269E-001   7.51240058E-001   9.88248471E-001
   2.25000000E+002   9.89213670E-001   7.51241132E-001   9.89195956E-001
   2.30000000E+002   9.90123226E-001   7.51242072E-001   9.90107340E-001
   2.35000000E+002   9.90928564E-001   7.51242897E-001   9.90914285E-001
   2.40000000E+002   9.91683892E-001   7.51243623E-001   9.91671028E-001
   2.45000000E+002   9.92365222E-001   7.51244263E-001   9.92353610E-001
