# ./jetvheto -in n3lo-fixed-order/H125-LHC13-R04-heft-xmur100-xmuf100-log.fxd -xQ 0.25 -out benchmarks-n3lo-smallR/H125-LHC13-R04-heft-xmur100-xmuf100-xQ025-NNLO+NNLLa.R0-1.0.res -scheme a -order 2 -ptmax 500.01 -fixed_order 2 -small-r -R0 1.0
# process = H    
# collider = pp   
# rts =  13000.000
# M   =    125.000
# muR =    125.000
# muF =    125.000
# Q   =     31.250
# p   =      5.000
# include_c1_squared =   F
# loop_mass  = none
# alphas(MZ) =    0.11800
# alphas(M) =    0.11264
# alphas(muR) =    0.11264
# Rjet =      0.400
# order = NNLL
# pdf name and set = PDF4LHC15_nnlo_mc.LHgrid,    0
# matching scheme = a
# total cross sections [nb] at LO, NLOdiff, NNLOdiff, N3LOdiff =     0.012945    0.016716    0.010146    0.003834
#----------------------------------------------------------------------
# the lines that follow give the jet-veto efficiencies as a function of pt
#         pt            matched eff      resummed eff     fixed-order eff
   2.00000000E+001   4.88788339E-001   5.36146831E-001   5.03121755E-001
   2.50000000E+001   5.74651350E-001   6.08198139E-001   5.84489186E-001
   3.00000000E+001   6.40869298E-001   6.50572225E-001   6.47024325E-001
   3.50000000E+001   6.92669190E-001   6.73630041E-001   6.96432698E-001
   4.00000000E+001   7.34208172E-001   6.85741240E-001   7.36537087E-001
   4.50000000E+001   7.68022976E-001   6.92141514E-001   7.69498888E-001
   5.00000000E+001   7.96095776E-001   6.95627711E-001   7.97057559E-001
   5.50000000E+001   8.19652116E-001   6.97602939E-001   8.20296043E-001
   6.00000000E+001   8.39736958E-001   6.98768159E-001   8.40179538E-001
   6.50000000E+001   8.57000239E-001   6.99482063E-001   8.57311575E-001
   7.00000000E+001   8.71846248E-001   6.99934703E-001   8.72069843E-001
   7.50000000E+001   8.84792448E-001   7.00230601E-001   8.84956099E-001
   8.00000000E+001   8.96115273E-001   7.00429361E-001   8.96237121E-001
   8.50000000E+001   9.06010581E-001   7.00566137E-001   9.06102675E-001
   9.00000000E+001   9.14809511E-001   7.00662308E-001   9.14880120E-001
   9.50000000E+001   9.22549300E-001   7.00731245E-001   9.22604114E-001
   1.00000000E+002   9.29429976E-001   7.00781526E-001   9.29473021E-001
   1.05000000E+002   9.35568997E-001   7.00818778E-001   9.35603161E-001
   1.10000000E+002   9.41026015E-001   7.00846771E-001   9.41053390E-001
   1.15000000E+002   9.45953825E-001   7.00868082E-001   9.45975962E-001
   1.20000000E+002   9.50362876E-001   7.00884498E-001   9.50380922E-001
   1.25000000E+002   9.54339254E-001   7.00897282E-001   9.54354081E-001
   1.30000000E+002   9.57921689E-001   7.00907337E-001   9.57933958E-001
   1.35000000E+002   9.61185659E-001   7.00915318E-001   9.61195880E-001
   1.40000000E+002   9.64101671E-001   7.00921709E-001   9.64110237E-001
   1.45000000E+002   9.66803780E-001   7.00926867E-001   9.66811003E-001
   1.50000000E+002   9.69210533E-001   7.00931060E-001   9.69216654E-001
   1.55000000E+002   9.71419984E-001   7.00934493E-001   9.71425199E-001
   1.60000000E+002   9.73454628E-001   7.00937321E-001   9.73459094E-001
   1.65000000E+002   9.75298015E-001   7.00939666E-001   9.75301855E-001
   1.70000000E+002   9.77007280E-001   7.00941620E-001   9.77010596E-001
   1.75000000E+002   9.78551467E-001   7.00943259E-001   9.78554343E-001
   1.80000000E+002   9.79988192E-001   7.00944639E-001   9.79990696E-001
   1.85000000E+002   9.81294239E-001   7.00945807E-001   9.81296426E-001
   1.90000000E+002   9.82502009E-001   7.00946800E-001   9.82503927E-001
   1.95000000E+002   9.83636599E-001   7.00947648E-001   9.83638287E-001
   2.00000000E+002   9.84673718E-001   7.00948376E-001   9.84675207E-001
   2.05000000E+002   9.85637767E-001   7.00949001E-001   9.85639085E-001
   2.10000000E+002   9.86521849E-001   7.00949542E-001   9.86523019E-001
   2.15000000E+002   9.87329940E-001   7.00950011E-001   9.87330981E-001
   2.20000000E+002   9.88091290E-001   7.00950418E-001   9.88092219E-001
   2.25000000E+002   9.88794152E-001   7.00950774E-001   9.88794983E-001
   2.30000000E+002   9.89450316E-001   7.00951085E-001   9.89451061E-001
   2.35000000E+002   9.90075136E-001   7.00951358E-001   9.90075806E-001
   2.40000000E+002   9.90640252E-001   7.00951598E-001   9.90640855E-001
   2.45000000E+002   9.91174410E-001   7.00951811E-001   9.91174955E-001
