# ./jetvheto -in n3lo-fixed-order/H125-LHC13-R04-heft-xmur200-xmuf100-log.fxd -xQ 0.50 -out benchmarks-n3lo-smallR/H125-LHC13-R04-heft-xmur200-xmuf100-xQ050-N3LO+NNLLa.R0-1.0.res -scheme a -order 2 -ptmax 500.01 -fixed_order 3 -small-r -R0 1.0
# process = H    
# collider = pp   
# rts =  13000.000
# M   =    125.000
# muR =    250.000
# muF =    125.000
# Q   =     62.500
# p   =      5.000
# include_c1_squared =   F
# loop_mass  = none
# alphas(MZ) =    0.11800
# alphas(M) =    0.11264
# alphas(muR) =    0.10244
# Rjet =      0.400
# order = NNLL
# pdf name and set = PDF4LHC15_nnlo_mc.LHgrid,    0
# matching scheme = a
# total cross sections [nb] at LO, NLOdiff, NNLOdiff, N3LOdiff =     0.010706    0.014429    0.010526    0.005600
#----------------------------------------------------------------------
# the lines that follow give the jet-veto efficiencies as a function of pt
#         pt            matched eff      resummed eff     fixed-order eff
   2.00000000E+001   4.65920139E-001   5.25168658E-001   4.83864536E-001
   2.50000000E+001   5.53586563E-001   6.10344522E-001   5.66336365E-001
   3.00000000E+001   6.25245840E-001   6.71274547E-001   6.33533594E-001
   3.50000000E+001   6.81313377E-001   7.14340420E-001   6.85744620E-001
   4.00000000E+001   7.26314176E-001   7.44246527E-001   7.28019410E-001
   4.50000000E+001   7.62494329E-001   7.64525399E-001   7.62485566E-001
   5.00000000E+001   7.92496889E-001   7.77894089E-001   7.91575294E-001
   5.50000000E+001   8.17628657E-001   7.86457819E-001   8.16332377E-001
   6.00000000E+001   8.38636482E-001   7.91814438E-001   8.37282852E-001
   6.50000000E+001   8.57038601E-001   7.95117246E-001   8.55795786E-001
   7.00000000E+001   8.72568596E-001   7.97148065E-001   8.71499263E-001
   7.50000000E+001   8.85630722E-001   7.98407409E-001   8.84743336E-001
   8.00000000E+001   8.97080157E-001   7.99202071E-001   8.96358926E-001
   8.50000000E+001   9.07334982E-001   7.99715162E-001   9.06755095E-001
   9.00000000E+001   9.16217957E-001   8.00055081E-001   9.15753146E-001
   9.50000000E+001   9.24261807E-001   8.00286226E-001   9.23889231E-001
   1.00000000E+002   9.31115237E-001   8.00447379E-001   9.30815615E-001
   1.05000000E+002   9.37263995E-001   8.00562354E-001   9.37021976E-001
   1.10000000E+002   9.42799410E-001   8.00646111E-001   9.42602908E-001
   1.15000000E+002   9.47774464E-001   8.00708273E-001   9.47613977E-001
   1.20000000E+002   9.52151556E-001   8.00755179E-001   9.52019706E-001
   1.25000000E+002   9.55990011E-001   8.00791097E-001   9.55881030E-001
   1.30000000E+002   9.59705893E-001   8.00818967E-001   9.59615306E-001
   1.35000000E+002   9.63020210E-001   8.00840846E-001   9.62944475E-001
   1.40000000E+002   9.65851895E-001   8.00858206E-001   9.65788234E-001
   1.45000000E+002   9.68542245E-001   8.00872113E-001   9.68488446E-001
   1.50000000E+002   9.70859997E-001   8.00883350E-001   9.70814307E-001
   1.55000000E+002   9.73226697E-001   8.00892503E-001   9.73187714E-001
   1.60000000E+002   9.75014893E-001   8.00900013E-001   9.74981471E-001
   1.65000000E+002   9.76825735E-001   8.00906217E-001   9.76796960E-001
   1.70000000E+002   9.78450062E-001   8.00911374E-001   9.78425185E-001
   1.75000000E+002   9.79995705E-001   8.00915686E-001   9.79974116E-001
   1.80000000E+002   9.81423582E-001   8.00919310E-001   9.81404775E-001
   1.85000000E+002   9.82714055E-001   8.00922373E-001   9.82697613E-001
   1.90000000E+002   9.83715365E-001   8.00924973E-001   9.83700941E-001
   1.95000000E+002   9.84872010E-001   8.00927190E-001   9.84859315E-001
   2.00000000E+002   9.85885443E-001   8.00929089E-001   9.85874236E-001
   2.05000000E+002   9.86779617E-001   8.00930722E-001   9.86769694E-001
   2.10000000E+002   9.87595280E-001   8.00932131E-001   9.87586470E-001
   2.15000000E+002   9.88440442E-001   8.00933352E-001   9.88432599E-001
   2.20000000E+002   9.89116736E-001   8.00934413E-001   9.89109735E-001
   2.25000000E+002   9.89797847E-001   8.00935339E-001   9.89791583E-001
   2.30000000E+002   9.90436361E-001   8.00936148E-001   9.90430742E-001
   2.35000000E+002   9.91038755E-001   8.00936858E-001   9.91033704E-001
   2.40000000E+002   9.91504108E-001   8.00937483E-001   9.91499557E-001
   2.45000000E+002   9.92043356E-001   8.00938034E-001   9.92039248E-001
