# ./jetvheto -in n3lo-fixed-order/H125-LHC13-R04-heft-xmur050-xmuf050-log.fxd -xQ 0.333 -out benchmarks-n3lo-smallR/H125-LHC13-R04-heft-xmur050-xmuf050-xQ033-NNLO+NNLLa.R0-0.5.res -scheme a -order 2 -ptmax 500.01 -fixed_order 2 -small-r -R0 0.5
# process = H    
# collider = pp   
# rts =  13000.000
# M   =    125.000
# muR =     62.500
# muF =     62.500
# Q   =     41.625
# p   =      5.000
# include_c1_squared =   F
# loop_mass  = none
# alphas(MZ) =    0.11800
# alphas(M) =    0.11264
# alphas(muR) =    0.12516
# Rjet =      0.400
# order = NNLL
# pdf name and set = PDF4LHC15_nnlo_mc.LHgrid,    0
# matching scheme = a
# total cross sections [nb] at LO, NLOdiff, NNLOdiff, N3LOdiff =     0.015055    0.019611    0.008998    0.001413
#----------------------------------------------------------------------
# the lines that follow give the jet-veto efficiencies as a function of pt
#         pt            matched eff      resummed eff     fixed-order eff
   2.00000000E+001   4.56879183E-001   4.84901687E-001   4.60803594E-001
   2.50000000E+001   5.43712871E-001   5.61411825E-001   5.46887027E-001
   3.00000000E+001   6.12282003E-001   6.13297290E-001   6.14137214E-001
   3.50000000E+001   6.66806812E-001   6.46983056E-001   6.67697748E-001
   4.00000000E+001   7.11010649E-001   6.67936960E-001   7.11386119E-001
   4.50000000E+001   7.47423170E-001   6.80583937E-001   7.47572136E-001
   5.00000000E+001   7.77880361E-001   6.88135414E-001   7.77943884E-001
   5.50000000E+001   8.03636490E-001   6.92676025E-001   8.03669340E-001
   6.00000000E+001   8.25547935E-001   6.95457108E-001   8.25569926E-001
   6.50000000E+001   8.44449017E-001   6.97202109E-001   8.44466421E-001
   7.00000000E+001   8.60889464E-001   6.98325586E-001   8.60904291E-001
   7.50000000E+001   8.75095167E-001   6.99067447E-001   8.75107581E-001
   8.00000000E+001   8.87572749E-001   6.99569141E-001   8.87583197E-001
   8.50000000E+001   8.98566686E-001   6.99915978E-001   8.98575401E-001
   9.00000000E+001   9.08287048E-001   7.00160637E-001   9.08294278E-001
   9.50000000E+001   9.16825946E-001   7.00336418E-001   9.16831850E-001
   1.00000000E+002   9.24431413E-001   7.00464840E-001   9.24436265E-001
   1.05000000E+002   9.31160943E-001   7.00560102E-001   9.31164894E-001
   1.10000000E+002   9.37205037E-001   7.00631755E-001   9.37208272E-001
   1.15000000E+002   9.42592796E-001   7.00686339E-001   9.42595447E-001
   1.20000000E+002   9.47449154E-001   7.00728408E-001   9.47451332E-001
   1.25000000E+002   9.51824892E-001   7.00761182E-001   9.51826691E-001
   1.30000000E+002   9.55738496E-001   7.00786969E-001   9.55739978E-001
   1.35000000E+002   9.59298925E-001   7.00807445E-001   9.59300155E-001
   1.40000000E+002   9.62524134E-001   7.00823842E-001   9.62525156E-001
   1.45000000E+002   9.65415489E-001   7.00837077E-001   9.65416341E-001
   1.50000000E+002   9.68072738E-001   7.00847839E-001   9.68073453E-001
   1.55000000E+002   9.70468965E-001   7.00856650E-001   9.70469565E-001
   1.60000000E+002   9.72672448E-001   7.00863911E-001   9.72672954E-001
   1.65000000E+002   9.74659187E-001   7.00869930E-001   9.74659615E-001
   1.70000000E+002   9.76497832E-001   7.00874948E-001   9.76498194E-001
   1.75000000E+002   9.78192691E-001   7.00879155E-001   9.78193000E-001
   1.80000000E+002   9.79723456E-001   7.00882698E-001   9.79723719E-001
   1.85000000E+002   9.81136035E-001   7.00885698E-001   9.81136260E-001
   1.90000000E+002   9.82438697E-001   7.00888248E-001   9.82438890E-001
   1.95000000E+002   9.83625426E-001   7.00890426E-001   9.83625593E-001
   2.00000000E+002   9.84720548E-001   7.00892293E-001   9.84720691E-001
   2.05000000E+002   9.85743228E-001   7.00893900E-001   9.85743353E-001
   2.10000000E+002   9.86672609E-001   7.00895289E-001   9.86672717E-001
   2.15000000E+002   9.87544947E-001   7.00896492E-001   9.87545040E-001
   2.20000000E+002   9.88352616E-001   7.00897539E-001   9.88352698E-001
   2.25000000E+002   9.89076768E-001   7.00898452E-001   9.89076840E-001
   2.30000000E+002   9.89791555E-001   7.00899251E-001   9.89791617E-001
   2.35000000E+002   9.90421783E-001   7.00899952E-001   9.90421838E-001
   2.40000000E+002   9.91018959E-001   7.00900570E-001   9.91019008E-001
   2.45000000E+002   9.91574064E-001   7.00901114E-001   9.91574107E-001
