# ./jetvheto -in n3lo-fixed-order/H125-LHC13-R04-mb-0-mt-1725-xmur100-xmuf100-log.fxd -xQ 0.125 -out benchmarks-n3lo-smallR/H125-LHC13-R04-mb-0-mt-1725-xmur100-xmuf100-xQ125-NNLO+NNLLa.R0-2.0.res -scheme a -order 2 -ptmax 500.01 -small-r -fixed_order 2 -loop-mass t -R0 2.0
# process = H    
# collider = pp   
# rts =  13000.000
# M   =    125.000
# muR =    125.000
# muF =    125.000
# Q   =     15.625
# p   =      5.000
# include_c1_squared =   F
# loop_mass  = t   
# alphas(MZ) =    0.11800
# alphas(M) =    0.11264
# alphas(muR) =    0.11264
# Rjet =      0.400
# order = NNLL
# pdf name and set = PDF4LHC15_nnlo_mc.LHgrid,    0
# matching scheme = a
# total cross sections [nb] at LO, NLOdiff, NNLOdiff, N3LOdiff =     0.013801    0.017514    0.010146    0.003834
#----------------------------------------------------------------------
# the lines that follow give the jet-veto efficiencies as a function of pt
#         pt            matched eff      resummed eff     fixed-order eff
   2.00000000E+001   5.09982365E-001   5.19093223E-001   5.12111256E-001
   2.50000000E+001   5.91841941E-001   5.34788348E-001   5.93117916E-001
   3.00000000E+001   6.54476372E-001   5.39893745E-001   6.55183932E-001
   3.50000000E+001   7.03912053E-001   5.41805686E-001   7.04312652E-001
   4.00000000E+001   7.43875898E-001   5.42619002E-001   7.44112204E-001
   4.50000000E+001   7.76595921E-001   5.43002549E-001   7.76741158E-001
   5.00000000E+001   8.03907000E-001   5.43198975E-001   8.03999724E-001
   5.50000000E+001   8.26895280E-001   5.43306513E-001   8.26956486E-001
   6.00000000E+001   8.46540788E-001   5.43368707E-001   8.46582419E-001
   6.50000000E+001   8.63420565E-001   5.43406361E-001   8.63449624E-001
   7.00000000E+001   8.77932181E-001   5.43430059E-001   8.77952928E-001
   7.50000000E+001   8.90642518E-001   5.43445478E-001   8.90657633E-001
   8.00000000E+001   9.01773374E-001   5.43455802E-001   9.01784587E-001
   8.50000000E+001   9.11490031E-001   5.43462892E-001   9.11498483E-001
   9.00000000E+001   9.20091362E-001   5.43467870E-001   9.20097826E-001
   9.50000000E+001   9.27661362E-001   5.43471434E-001   9.27666371E-001
   1.00000000E+002   9.34413118E-001   5.43474031E-001   9.34417045E-001
   1.05000000E+002   9.40431008E-001   5.43475955E-001   9.40434122E-001
   1.10000000E+002   9.45746498E-001   5.43477400E-001   9.45748990E-001
   1.15000000E+002   9.50567340E-001   5.43478499E-001   9.50569353E-001
   1.20000000E+002   9.54865721E-001   5.43479346E-001   9.54867362E-001
   1.25000000E+002   9.58752146E-001   5.43480006E-001   9.58753493E-001
   1.30000000E+002   9.62266778E-001   5.43480524E-001   9.62267892E-001
   1.35000000E+002   9.65428492E-001   5.43480936E-001   9.65429419E-001
   1.40000000E+002   9.68287204E-001   5.43481265E-001   9.68287981E-001
   1.45000000E+002   9.70915304E-001   5.43481531E-001   9.70915959E-001
   1.50000000E+002   9.73259021E-001   5.43481747E-001   9.73259576E-001
   1.55000000E+002   9.75426284E-001   5.43481924E-001   9.75426757E-001
   1.60000000E+002   9.77405185E-001   5.43482070E-001   9.77405590E-001
   1.65000000E+002   9.79195820E-001   5.43482191E-001   9.79196168E-001
   1.70000000E+002   9.80841416E-001   5.43482292E-001   9.80841717E-001
   1.75000000E+002   9.82320292E-001   5.43482376E-001   9.82320552E-001
   1.80000000E+002   9.83692100E-001   5.43482447E-001   9.83692327E-001
   1.85000000E+002   9.84936292E-001   5.43482507E-001   9.84936490E-001
   1.90000000E+002   9.86088856E-001   5.43482558E-001   9.86089030E-001
   1.95000000E+002   9.87154570E-001   5.43482602E-001   9.87154723E-001
   2.00000000E+002   9.88119979E-001   5.43482640E-001   9.88120114E-001
   2.05000000E+002   9.89021533E-001   5.43482672E-001   9.89021653E-001
   2.10000000E+002   9.89836278E-001   5.43482700E-001   9.89836384E-001
   2.15000000E+002   9.90579540E-001   5.43482724E-001   9.90579634E-001
   2.20000000E+002   9.91277058E-001   5.43482745E-001   9.91277142E-001
   2.25000000E+002   9.91915060E-001   5.43482763E-001   9.91915136E-001
   2.30000000E+002   9.92505864E-001   5.43482779E-001   9.92505931E-001
   2.35000000E+002   9.93060119E-001   5.43482793E-001   9.93060180E-001
   2.40000000E+002   9.93557284E-001   5.43482806E-001   9.93557338E-001
   2.45000000E+002   9.94025057E-001   5.43482817E-001   9.94025107E-001
