# python build-Q2-histos.py --mtQ1file ../../JetVHeto/benchmarks-n3lo-smallR/H125-LHC13-R04-mb-0-mt-1725-xmur100-xmuf050-xQ050-NNLO+NNLLa.R0-1.0.res --mtQ2file ../../JetVHeto/benchmarks-n3lo-smallR/H125-LHC13-R04-mb-0-mt-1725-xmur100-xmuf050-xQ0625-NNLO+NNLLa.R0-1.0.res --mtmbQ2file ../../JetVHeto/benchmarks-n3lo-smallR/H125-LHC13-R04-mb-475-mt-1725-xmur100-xmuf050-xQ0625-NNLO+NNLLa.R0-1.0.res
# process = H    
# collider = pp   
# rts =  13000.000
# M   =    125.000
# muR =    125.000
# muF =     62.500
# Q1  =  62.500; Q2  =  7.812
# p   =      5.000
# include_c1_squared =   F
# loop_mass  = t+b 
# alphas(MZ) =    0.11800
# alphas(M) =    0.11264
# alphas(muR) =    0.11264
# Rjet =      0.400
# order = NNLL
# pdf name and set = PDF4LHC15_nnlo_mc.LHgrid,    0
# matching scheme = a
# total cross sections [nb] at LO, NLOdiff, NNLOdiff, N3LOdiff =     0.011575    0.016866    0.010424    0.004163
#----------------------------------------------------------------------
# the lines that follow give the jet-veto efficiencies as a function of pt
#         pt            matched eff      resummed eff     fixed-order eff
20.0 0.459200633598 0.510008143773 0.489064583
25.0 0.549664050995 0.598581788978 0.57003472
30.0 0.621022644777 0.66214569101 0.63294287
35.0 0.67770429144 0.707205670229 0.683258386
40.0 0.722964073085 0.738610348592 0.724239561
45.0 0.759719479469 0.759988447977 0.758461479
50.0 0.789753714942 0.77414416936 0.787253375
55.0 0.814551842312 0.783263944079 0.811661801
60.0 0.835405587589 0.789011188553 0.832610002
65.0 0.85314824056 0.792585868418 0.850676857
70.0 0.86853311514 0.794805376269 0.866457347
75.0 0.881847211035 0.796196096178 0.880153278
80.0 0.893593498949 0.797082895897 0.892232619
85.0 0.904018008641 0.79766123267 0.902932418
90.0 0.913187862829 0.79804798759 0.91232332
95.0 0.921322531757 0.798313219139 0.920632683
100.0 0.928626773106 0.798499511408 0.928074069
105.0 0.935161237097 0.798633262058 0.934716121
110.0 0.94098258793 0.798731215136 0.940622008
115.0 0.94625508061 0.798804231428 0.945961129
120.0 0.950985639475 0.798859530585 0.950744483
125.0 0.955299485038 0.798902002678 0.955100393
130.0 0.959155686665 0.798935035181 0.958990329
135.0 0.96264821918 0.798961022372 0.962510083
140.0 0.965841877602 0.798981674696 0.965725821
145.0 0.968731988155 0.798998240004 0.968633949
150.0 0.971381131104 0.799011642392 0.971297891
155.0 0.973788557206 0.799022570007 0.973717539
160.0 0.975978317275 0.799031541828 0.975917445
165.0 0.977965819462 0.799038957796 0.977913415
170.0 0.979777086497 0.799045125912 0.979731786
175.0 0.981457015899 0.799050285349 0.9814177
180.0 0.982969427265 0.799054624024 0.982935177
185.0 0.984377423829 0.799058291305 0.984347479
190.0 0.98566052615 0.799061406146 0.985634255
195.0 0.986835039717 0.799064062615 0.986811918
200.0 0.987908724948 0.799066338986 0.987888312
205.0 0.988899700879 0.799068295823 0.988881626
210.0 0.989791158079 0.799069984338 0.989775108
215.0 0.990635997512 0.7990714483 0.990621707
220.0 0.991413146543 0.799072721169 0.991400389
225.0 0.992105163755 0.799073830138 0.992093747
230.0 0.992770924867 0.799074801225 0.992760685
235.0 0.993360402082 0.799075653314 0.993351196
240.0 0.993913265472 0.79907640098 0.99390497
245.0 0.994411963329 0.799077062976 0.994404475
