# ./jetvheto -in n3lo-fixed-order/H125-LHC13-R04-mb-0-mt-1725-xmur050-xmuf050-log.fxd -xQ 0.75 -out benchmarks-n3lo-smallR/H125-LHC13-R04-mb-0-mt-1725-xmur050-xmuf050-xQ075-N3LO+NNLLa.R0-2.0.res -scheme a -order 2 -ptmax 500.01 -small-r -fixed_order 3 -loop-mass t -R0 2.0
# process = H    
# collider = pp   
# rts =  13000.000
# M   =    125.000
# muR =     62.500
# muF =     62.500
# Q   =     93.750
# p   =      5.000
# include_c1_squared =   F
# loop_mass  = t   
# alphas(MZ) =    0.11800
# alphas(M) =    0.11264
# alphas(muR) =    0.12516
# Rjet =      0.400
# order = NNLL
# pdf name and set = PDF4LHC15_nnlo_mc.LHgrid,    0
# matching scheme = a
# total cross sections [nb] at LO, NLOdiff, NNLOdiff, N3LOdiff =     0.015885    0.020561    0.008998    0.001413
#----------------------------------------------------------------------
# the lines that follow give the jet-veto efficiencies as a function of pt
#         pt            matched eff      resummed eff     fixed-order eff
   2.00000000E+001   5.11213610E-001   5.83311940E-001   4.58478332E-001
   2.50000000E+001   5.90291550E-001   6.55710979E-001   5.43713081E-001
   3.00000000E+001   6.56508378E-001   7.05765214E-001   6.16066731E-001
   3.50000000E+001   7.08827392E-001   7.40046359E-001   6.73487735E-001
   4.00000000E+001   7.48928161E-001   7.63017033E-001   7.18067162E-001
   4.50000000E+001   7.83769236E-001   7.77789687E-001   7.56928051E-001
   5.00000000E+001   8.11511306E-001   7.86585245E-001   7.88284226E-001
   5.50000000E+001   8.35225475E-001   7.91040830E-001   8.15210520E-001
   6.00000000E+001   8.54556307E-001   7.92382336E-001   8.37433297E-001
   6.50000000E+001   8.72546951E-001   7.91558376E-001   8.57921417E-001
   7.00000000E+001   8.86125693E-001   7.89313292E-001   8.73778810E-001
   7.50000000E+001   8.98301773E-001   7.86228474E-001   8.87924776E-001
   8.00000000E+001   9.09363009E-001   7.82748724E-001   9.00670973E-001
   8.50000000E+001   9.19224250E-001   7.79198184E-001   9.11969998E-001
   9.00000000E+001   9.27966999E-001   7.75796622E-001   9.21929710E-001
   9.50000000E+001   9.34903702E-001   7.72676077E-001   9.29907319E-001
   1.00000000E+002   9.41647993E-001   7.69902319E-001   9.37506036E-001
   1.05000000E+002   9.46967657E-001   7.67493292E-001   9.43543485E-001
   1.10000000E+002   9.51923453E-001   7.65435994E-001   9.49085884E-001
   1.15000000E+002   9.56682887E-001   7.63699916E-001   9.54323006E-001
   1.20000000E+002   9.61008042E-001   7.62246694E-001   9.59039767E-001
   1.25000000E+002   9.64617122E-001   7.61036317E-001   9.62972878E-001
   1.30000000E+002   9.67744417E-001   7.60030973E-001   9.66366470E-001
   1.35000000E+002   9.70892196E-001   7.59196742E-001   9.69730923E-001
   1.40000000E+002   9.73779583E-001   7.58504213E-001   9.72797037E-001
   1.45000000E+002   9.76299743E-001   7.57928502E-001   9.75465608E-001
   1.50000000E+002   9.78262118E-001   7.57448874E-001   9.77552300E-001
   1.55000000E+002   9.80522059E-001   7.57048223E-001   9.79914033E-001
   1.60000000E+002   9.82552111E-001   7.56712528E-001   9.82029350E-001
   1.65000000E+002   9.83784758E-001   7.56430335E-001   9.83335000E-001
   1.70000000E+002   9.85402778E-001   7.56192305E-001   9.85013351E-001
   1.75000000E+002   9.86898793E-001   7.55990823E-001   9.86560338E-001
   1.80000000E+002   9.88041394E-001   7.55819677E-001   9.87746562E-001
   1.85000000E+002   9.89094322E-001   7.55673789E-001   9.88836616E-001
   1.90000000E+002   9.90178306E-001   7.55548999E-001   9.89952168E-001
   1.95000000E+002   9.91181129E-001   7.55441894E-001   9.90982071E-001
   2.00000000E+002   9.92068290E-001   7.55349662E-001   9.91892575E-001
   2.05000000E+002   9.92766450E-001   7.55269978E-001   9.92610981E-001
   2.10000000E+002   9.93469651E-001   7.55200920E-001   9.93331661E-001
   2.15000000E+002   9.94014785E-001   7.55140888E-001   9.93892050E-001
   2.20000000E+002   9.94798684E-001   7.55088546E-001   9.94689076E-001
   2.25000000E+002   9.95201403E-001   7.55042781E-001   9.95103439E-001
   2.30000000E+002   9.95700924E-001   7.55002654E-001   9.95613102E-001
   2.35000000E+002   9.96063233E-001   7.54967377E-001   9.95984357E-001
   2.40000000E+002   9.96460031E-001   7.54936284E-001   9.96389013E-001
   2.45000000E+002   9.96926145E-001   7.54908809E-001   9.96862033E-001
