# ./jetvheto -in n3lo-fixed-order/H125-LHC13-R04-mb-475-mt-1725-xmur025-xmuf025-log.fxd -xQ 0.0625 -out benchmarks-n3lo-smallR/H125-LHC13-R04-mb-475-mt-1725-xmur025-xmuf025-xQ0625-NNLO+NNLLa.R0-1.0.res -scheme a -order 2 -ptmax 500.01 -fixed_order 2 -small-r -loop-mass t+b -R0 1.0
# process = H    
# collider = pp   
# rts =  13000.000
# M   =    125.000
# muR =     31.250
# muF =     31.250
# Q   =      7.812
# p   =      5.000
# include_c1_squared =   F
# loop_mass  = t+b 
# alphas(MZ) =    0.11800
# alphas(M) =    0.11264
# alphas(muR) =    0.14091
# Rjet =      0.400
# order = NNLL
# pdf name and set = PDF4LHC15_nnlo_mc.LHgrid,    0
# matching scheme = a
# total cross sections [nb] at LO, NLOdiff, NNLOdiff, N3LOdiff =     0.016156    0.025248    0.006043   -0.002471
#----------------------------------------------------------------------
# the lines that follow give the jet-veto efficiencies as a function of pt
#         pt            matched eff      resummed eff     fixed-order eff
   2.00000000E+001   4.14356509E-001   4.79763168E-002   4.14362726E-001
   2.50000000E+001   5.03356044E-001   4.81379719E-002   5.03382423E-001
   3.00000000E+001   5.74857638E-001   4.81853386E-002   5.74877333E-001
   3.50000000E+001   6.33634532E-001   4.82024666E-002   6.33647351E-001
   4.00000000E+001   6.82266457E-001   4.82096544E-002   6.82274657E-001
   4.50000000E+001   7.23082852E-001   4.82130239E-002   7.23088176E-001
   5.00000000E+001   7.57538315E-001   4.82147446E-002   7.57541843E-001
   5.50000000E+001   7.86822995E-001   4.82156852E-002   7.86825388E-001
   6.00000000E+001   8.11987972E-001   4.82162287E-002   8.11989633E-001
   6.50000000E+001   8.33717868E-001   4.82165576E-002   8.33719045E-001
   7.00000000E+001   8.52716470E-001   4.82167645E-002   8.52717321E-001
   7.50000000E+001   8.69004327E-001   4.82168991E-002   8.69004953E-001
   8.00000000E+001   8.83470393E-001   4.82169893E-002   8.83470860E-001
   8.50000000E+001   8.96210360E-001   4.82170511E-002   8.96210714E-001
   9.00000000E+001   9.07400931E-001   4.82170946E-002   9.07401203E-001
   9.50000000E+001   9.17163667E-001   4.82171257E-002   9.17163878E-001
   1.00000000E+002   9.25851791E-001   4.82171484E-002   9.25851957E-001
   1.05000000E+002   9.33640564E-001   4.82171651E-002   9.33640696E-001
   1.10000000E+002   9.40534898E-001   4.82171778E-002   9.40535003E-001
   1.15000000E+002   9.46742176E-001   4.82171874E-002   9.46742262E-001
   1.20000000E+002   9.52305607E-001   4.82171947E-002   9.52305676E-001
   1.25000000E+002   9.57221450E-001   4.82172005E-002   9.57221507E-001
   1.30000000E+002   9.61677417E-001   4.82172050E-002   9.61677464E-001
   1.35000000E+002   9.65675752E-001   4.82172086E-002   9.65675792E-001
   1.40000000E+002   9.69247955E-001   4.82172115E-002   9.69247988E-001
   1.45000000E+002   9.72542249E-001   4.82172138E-002   9.72542277E-001
   1.50000000E+002   9.75471890E-001   4.82172157E-002   9.75471914E-001
   1.55000000E+002   9.78121048E-001   4.82172172E-002   9.78121067E-001
   1.60000000E+002   9.80539884E-001   4.82172185E-002   9.80539901E-001
   1.65000000E+002   9.82722097E-001   4.82172196E-002   9.82722112E-001
   1.70000000E+002   9.84674710E-001   4.82172204E-002   9.84674723E-001
   1.75000000E+002   9.86453096E-001   4.82172212E-002   9.86453107E-001
   1.80000000E+002   9.88052663E-001   4.82172218E-002   9.88052673E-001
   1.85000000E+002   9.89485819E-001   4.82172223E-002   9.89485827E-001
   1.90000000E+002   9.90818560E-001   4.82172228E-002   9.90818567E-001
   1.95000000E+002   9.92034898E-001   4.82172232E-002   9.92034904E-001
   2.00000000E+002   9.93122926E-001   4.82172235E-002   9.93122932E-001
   2.05000000E+002   9.94129969E-001   4.82172238E-002   9.94129974E-001
   2.10000000E+002   9.95047999E-001   4.82172240E-002   9.95048004E-001
   2.15000000E+002   9.95839781E-001   4.82172242E-002   9.95839785E-001
   2.20000000E+002   9.96592898E-001   4.82172244E-002   9.96592901E-001
   2.25000000E+002   9.97271139E-001   4.82172246E-002   9.97271142E-001
   2.30000000E+002   9.97867973E-001   4.82172247E-002   9.97867975E-001
   2.35000000E+002   9.98424370E-001   4.82172248E-002   9.98424373E-001
   2.40000000E+002   9.98910776E-001   4.82172249E-002   9.98910778E-001
   2.45000000E+002   9.99350632E-001   4.82172250E-002   9.99350634E-001
