# ./jetvheto -in n3lo-fixed-order/H125-LHC13-R04-heft-xmur050-xmuf050-log.fxd -xQ 0.333 -out benchmarks-n3lo-smallR/H125-LHC13-R04-heft-xmur050-xmuf050-xQ033-N3LO+NNLLa.R0-2.0.res -scheme a -order 2 -ptmax 500.01 -fixed_order 3 -small-r -R0 2.0
# process = H    
# collider = pp   
# rts =  13000.000
# M   =    125.000
# muR =     62.500
# muF =     62.500
# Q   =     41.625
# p   =      5.000
# include_c1_squared =   F
# loop_mass  = none
# alphas(MZ) =    0.11800
# alphas(M) =    0.11264
# alphas(muR) =    0.12516
# Rjet =      0.400
# order = NNLL
# pdf name and set = PDF4LHC15_nnlo_mc.LHgrid,    0
# matching scheme = a
# total cross sections [nb] at LO, NLOdiff, NNLOdiff, N3LOdiff =     0.015055    0.019611    0.008998    0.001413
#----------------------------------------------------------------------
# the lines that follow give the jet-veto efficiencies as a function of pt
#         pt            matched eff      resummed eff     fixed-order eff
   2.00000000E+001   4.55732104E-001   4.92798724E-001   4.50065620E-001
   2.50000000E+001   5.39679486E-001   5.66587909E-001   5.35117843E-001
   3.00000000E+001   6.10894848E-001   6.16576061E-001   6.07875407E-001
   3.50000000E+001   6.67604750E-001   6.49015021E-001   6.65471707E-001
   4.00000000E+001   7.11854822E-001   6.69186930E-001   7.10255567E-001
   4.50000000E+001   7.50567436E-001   6.81358369E-001   7.49462038E-001
   5.00000000E+001   7.81677396E-001   6.88623970E-001   7.80889863E-001
   5.50000000E+001   8.08806447E-001   6.92991743E-001   8.08255100E-001
   6.00000000E+001   8.31051235E-001   6.95666529E-001   8.30655804E-001
   6.50000000E+001   8.51639690E-001   6.97344642E-001   8.51359759E-001
   7.00000000E+001   8.67608910E-001   6.98424971E-001   8.67401068E-001
   7.50000000E+001   8.81875821E-001   6.99138301E-001   8.81721105E-001
   8.00000000E+001   8.94746909E-001   6.99620683E-001   8.94630807E-001
   8.50000000E+001   9.06163874E-001   6.99954159E-001   9.06075690E-001
   9.00000000E+001   9.16262108E-001   7.00189390E-001   9.16194285E-001
   9.50000000E+001   9.24356138E-001   7.00358395E-001   9.24302841E-001
   1.00000000E+002   9.32011248E-001   7.00481865E-001   9.31969203E-001
   1.05000000E+002   9.38147751E-001   7.00573452E-001   9.38114001E-001
   1.10000000E+002   9.43807012E-001   7.00642341E-001   9.43779750E-001
   1.15000000E+002   9.49125080E-001   7.00694819E-001   9.49102964E-001
   1.20000000E+002   9.53923350E-001   7.00735266E-001   9.53905269E-001
   1.25000000E+002   9.57883304E-001   7.00766776E-001   9.57868349E-001
   1.30000000E+002   9.61345721E-001   7.00791567E-001   9.61333266E-001
   1.35000000E+002   9.64808308E-001   7.00811253E-001   9.64797911E-001
   1.40000000E+002   9.67942950E-001   7.00827017E-001   9.67934219E-001
   1.45000000E+002   9.70631105E-001   7.00839742E-001   9.70623723E-001
   1.50000000E+002   9.72731689E-001   7.00850088E-001   9.72725389E-001
   1.55000000E+002   9.75133151E-001   7.00858559E-001   9.75127782E-001
   1.60000000E+002   9.77307873E-001   7.00865540E-001   9.77303274E-001
   1.65000000E+002   9.78639476E-001   7.00871327E-001   9.78635491E-001
   1.70000000E+002   9.80371318E-001   7.00876152E-001   9.80367872E-001
   1.75000000E+002   9.81993411E-001   7.00880196E-001   9.81990419E-001
   1.80000000E+002   9.83243149E-001   7.00883603E-001   9.83240537E-001
   1.85000000E+002   9.84386472E-001   7.00886486E-001   9.84384183E-001
   1.90000000E+002   9.85566435E-001   7.00888938E-001   9.85564426E-001
   1.95000000E+002   9.86654230E-001   7.00891032E-001   9.86652461E-001
   2.00000000E+002   9.87625229E-001   7.00892827E-001   9.87623667E-001
   2.05000000E+002   9.88412982E-001   7.00894372E-001   9.88411596E-001
   2.10000000E+002   9.89211815E-001   7.00895707E-001   9.89210583E-001
   2.15000000E+002   9.89834320E-001   7.00896864E-001   9.89833220E-001
   2.20000000E+002   9.90709679E-001   7.00897870E-001   9.90708699E-001
   2.25000000E+002   9.91188786E-001   7.00898748E-001   9.91187907E-001
   2.30000000E+002   9.91769335E-001   7.00899516E-001   9.91768546E-001
   2.35000000E+002   9.92213919E-001   7.00900191E-001   9.92213208E-001
   2.40000000E+002   9.92691185E-001   7.00900784E-001   9.92690544E-001
   2.45000000E+002   9.93243361E-001   7.00901308E-001   9.93242783E-001
