# ./jetvheto -in n3lo-fixed-order/H125-LHC13-R04-mb-475-mt-1725-xmur025-xmuf050-log.fxd -xQ 0.5 -out benchmarks-n3lo-smallR/H125-LHC13-R04-mb-475-mt-1725-xmur025-xmuf050-xQ050-NNLO+NNLLb.R0-1.5.res -scheme b -order 2 -ptmax 500.01 -fixed_order 2 -small-r -loop-mass t+b -R0 1.5
# process = H    
# collider = pp   
# rts =  13000.000
# M   =    125.000
# muR =     31.250
# muF =     62.500
# Q   =     62.500
# p   =      5.000
# include_c1_squared =   F
# loop_mass  = t+b 
# alphas(MZ) =    0.11800
# alphas(M) =    0.11264
# alphas(muR) =    0.14091
# Rjet =      0.400
# order = NNLL
# pdf name and set = PDF4LHC15_nnlo_mc.LHgrid,    0
# matching scheme = b
# total cross sections [nb] at LO, NLOdiff, NNLOdiff, N3LOdiff =     0.017683    0.024805    0.005009   -0.002663
#----------------------------------------------------------------------
# the lines that follow give the jet-veto efficiencies as a function of pt
#         pt            matched eff      resummed eff     fixed-order eff
   2.00000000E+001   4.50977744E-001   4.82624460E-001   3.45013482E-001
   2.50000000E+001   5.29792731E-001   5.43048342E-001   4.46678028E-001
   3.00000000E+001   5.93527914E-001   5.84576161E-001   5.28145480E-001
   3.50000000E+001   6.45639033E-001   6.12721488E-001   5.94218939E-001
   4.00000000E+001   6.88724443E-001   6.31340693E-001   6.48501749E-001
   4.50000000E+001   7.25162801E-001   6.43213646E-001   6.93918270E-001
   5.00000000E+001   7.56277286E-001   6.50429301E-001   7.32217372E-001
   5.50000000E+001   7.83040743E-001   6.54569774E-001   7.64650938E-001
   6.00000000E+001   8.06378333E-001   6.56795077E-001   7.92387018E-001
   6.50000000E+001   8.26888651E-001   6.57901177E-001   8.16263144E-001
   7.00000000E+001   8.45151616E-001   6.58395522E-001   8.37069884E-001
   7.50000000E+001   8.61153785E-001   6.58577354E-001   8.54982301E-001
   8.00000000E+001   8.75471200E-001   6.58611041E-001   8.70729506E-001
   8.50000000E+001   8.88266605E-001   6.58581330E-001   8.84596193E-001
   9.00000000E+001   8.99612648E-001   6.58529629E-001   8.96749054E-001
   9.50000000E+001   9.09627788E-001   6.58474765E-001   9.07374553E-001
   1.00000000E+002   9.18654063E-001   6.58424435E-001   9.16865875E-001
   1.05000000E+002   9.26657267E-001   6.58381124E-001   9.25226146E-001
   1.10000000E+002   9.33814798E-001   6.58345018E-001   9.32660346E-001
   1.15000000E+002   9.40251154E-001   6.58315400E-001   9.39312551E-001
   1.20000000E+002   9.46016551E-001   6.58291288E-001   9.45247859E-001
   1.25000000E+002   9.51253378E-001   6.58271712E-001   9.50619386E-001
   1.30000000E+002   9.55880560E-001   6.58255812E-001   9.55354243E-001
   1.35000000E+002   9.60081776E-001   6.58242871E-001   9.59642145E-001
   1.40000000E+002   9.63890079E-001   6.58232304E-001   9.63520673E-001
   1.45000000E+002   9.67299959E-001   6.58223641E-001   9.66987843E-001
   1.50000000E+002   9.70426936E-001   6.58216508E-001   9.70161843E-001
   1.55000000E+002   9.73240986E-001   6.58210608E-001   9.73014721E-001
   1.60000000E+002   9.75785818E-001   6.58205707E-001   9.75591796E-001
   1.65000000E+002   9.78069687E-001   6.58201615E-001   9.77902582E-001
   1.70000000E+002   9.80156128E-001   6.58198185E-001   9.80011610E-001
   1.75000000E+002   9.82085748E-001   6.58195296E-001   9.81960264E-001
   1.80000000E+002   9.83788655E-001   6.58192852E-001   9.83679291E-001
   1.85000000E+002   9.85368018E-001   6.58190777E-001   9.85272360E-001
   1.90000000E+002   9.86807033E-001   6.58189007E-001   9.86723082E-001
   1.95000000E+002   9.88103601E-001   6.58187493E-001   9.88029685E-001
   2.00000000E+002   9.89280592E-001   6.58186192E-001   9.89215313E-001
   2.05000000E+002   9.90368019E-001   6.58185070E-001   9.90310198E-001
   2.10000000E+002   9.91323986E-001   6.58184099E-001   9.91272628E-001
   2.15000000E+002   9.92237900E-001   6.58183257E-001   9.92192159E-001
   2.20000000E+002   9.93072685E-001   6.58182523E-001   9.93031843E-001
   2.25000000E+002   9.93787226E-001   6.58181882E-001   9.93750669E-001
   2.30000000E+002   9.94509809E-001   6.58181321E-001   9.94477010E-001
   2.35000000E+002   9.95119710E-001   6.58180828E-001   9.95090217E-001
   2.40000000E+002   9.95691184E-001   6.58180394E-001   9.95664606E-001
   2.45000000E+002   9.96206360E-001   6.58180011E-001   9.96182360E-001
