# ./jetvheto -in n3lo-fixed-order/H125-LHC13-R04-mb-0-mt-1725-xmur050-xmuf025-log.fxd -xQ 0.25 -out benchmarks-n3lo-smallR/H125-LHC13-R04-mb-0-mt-1725-xmur050-xmuf025-xQ025-NNLO+NNLLb.R0-0.5.res -scheme b -order 2 -ptmax 500.01 -small-r -fixed_order 2 -loop-mass t -R0 0.5
# process = H    
# collider = pp   
# rts =  13000.000
# M   =    125.000
# muR =     62.500
# muF =     31.250
# Q   =     31.250
# p   =      5.000
# include_c1_squared =   F
# loop_mass  = t   
# alphas(MZ) =    0.11800
# alphas(M) =    0.11264
# alphas(muR) =    0.12516
# Rjet =      0.400
# order = NNLL
# pdf name and set = PDF4LHC15_nnlo_mc.LHgrid,    0
# matching scheme = b
# total cross sections [nb] at LO, NLOdiff, NNLOdiff, N3LOdiff =     0.014513    0.020714    0.009723    0.001827
#----------------------------------------------------------------------
# the lines that follow give the jet-veto efficiencies as a function of pt
#         pt            matched eff      resummed eff     fixed-order eff
   2.00000000E+001   3.72902578E-001   4.85006364E-001   3.17487847E-001
   2.50000000E+001   4.55944124E-001   5.56962655E-001   4.26754407E-001
   3.00000000E+001   5.26841834E-001   5.99892442E-001   5.11966558E-001
   3.50000000E+001   5.87987878E-001   6.23484458E-001   5.80470117E-001
   4.00000000E+001   6.40242954E-001   6.35952285E-001   6.36364792E-001
   4.50000000E+001   6.84686377E-001   6.42564699E-001   6.82611528E-001
   5.00000000E+001   7.22699819E-001   6.46173835E-001   7.21540031E-001
   5.50000000E+001   7.55120674E-001   6.48221124E-001   7.54444177E-001
   6.00000000E+001   7.83045400E-001   6.49429690E-001   7.82634803E-001
   6.50000000E+001   8.07236088E-001   6.50170462E-001   8.06977613E-001
   7.00000000E+001   8.28296943E-001   6.50640260E-001   8.28128874E-001
   7.50000000E+001   8.46500659E-001   6.50947426E-001   8.46387939E-001
   8.00000000E+001   8.62643808E-001   6.51153779E-001   8.62566302E-001
   8.50000000E+001   8.76760400E-001   6.51295790E-001   8.76705809E-001
   9.00000000E+001   8.89285413E-001   6.51395648E-001   8.89246129E-001
   9.50000000E+001   9.00269961E-001   6.51467231E-001   9.00241110E-001
   1.00000000E+002   9.10111315E-001   6.51519442E-001   9.10089763E-001
   1.05000000E+002   9.18915027E-001   6.51558125E-001   9.18898671E-001
   1.10000000E+002   9.26722305E-001   6.51587195E-001   9.26709709E-001
   1.15000000E+002   9.33791771E-001   6.51609325E-001   9.33781944E-001
   1.20000000E+002   9.40127314E-001   6.51626372E-001   9.40119549E-001
   1.25000000E+002   9.45739917E-001   6.51639647E-001   9.45733708E-001
   1.30000000E+002   9.50853870E-001   6.51650089E-001   9.50848857E-001
   1.35000000E+002   9.55456730E-001   6.51658378E-001   9.55452646E-001
   1.40000000E+002   9.59632888E-001   6.51665015E-001   9.59629530E-001
   1.45000000E+002   9.63457172E-001   6.51670371E-001   9.63454390E-001
   1.50000000E+002   9.66878428E-001   6.51674725E-001   9.66876104E-001
   1.55000000E+002   9.69988713E-001   6.51678290E-001   9.69986758E-001
   1.60000000E+002   9.72839670E-001   6.51681227E-001   9.72838016E-001
   1.65000000E+002   9.75432599E-001   6.51683662E-001   9.75431192E-001
   1.70000000E+002   9.77761692E-001   6.51685692E-001   9.77760487E-001
   1.75000000E+002   9.79890645E-001   6.51687394E-001   9.79889608E-001
   1.80000000E+002   9.81838670E-001   6.51688827E-001   9.81837773E-001
   1.85000000E+002   9.83600726E-001   6.51690040E-001   9.83599946E-001
   1.90000000E+002   9.85233331E-001   6.51691071E-001   9.85232651E-001
   1.95000000E+002   9.86736739E-001   6.51691952E-001   9.86736143E-001
   2.00000000E+002   9.88086499E-001   6.51692707E-001   9.88085975E-001
   2.05000000E+002   9.89343131E-001   6.51693357E-001   9.89342669E-001
   2.10000000E+002   9.90502404E-001   6.51693919E-001   9.90501995E-001
   2.15000000E+002   9.91508587E-001   6.51694405E-001   9.91508223E-001
   2.20000000E+002   9.92461707E-001   6.51694829E-001   9.92461383E-001
   2.25000000E+002   9.93347026E-001   6.51695198E-001   9.93346737E-001
   2.30000000E+002   9.94132693E-001   6.51695521E-001   9.94132434E-001
   2.35000000E+002   9.94850374E-001   6.51695805E-001   9.94850142E-001
   2.40000000E+002   9.95496950E-001   6.51696054E-001   9.95496740E-001
   2.45000000E+002   9.96106626E-001   6.51696275E-001   9.96106437E-001
