# ./jetvheto -in n3lo-fixed-order/H125-LHC13-R04-heft-xmur050-xmuf050-log.fxd -xQ 0.75 -out benchmarks-n3lo-smallR/H125-LHC13-R04-heft-xmur050-xmuf050-xQ075-N3LO+NNLLa.R0-2.0.res -scheme a -order 2 -ptmax 500.01 -fixed_order 3 -small-r -R0 2.0
# process = H    
# collider = pp   
# rts =  13000.000
# M   =    125.000
# muR =     62.500
# muF =     62.500
# Q   =     93.750
# p   =      5.000
# include_c1_squared =   F
# loop_mass  = none
# alphas(MZ) =    0.11800
# alphas(M) =    0.11264
# alphas(muR) =    0.12516
# Rjet =      0.400
# order = NNLL
# pdf name and set = PDF4LHC15_nnlo_mc.LHgrid,    0
# matching scheme = a
# total cross sections [nb] at LO, NLOdiff, NNLOdiff, N3LOdiff =     0.015055    0.019611    0.008998    0.001413
#----------------------------------------------------------------------
# the lines that follow give the jet-veto efficiencies as a function of pt
#         pt            matched eff      resummed eff     fixed-order eff
   2.00000000E+001   5.02485304E-001   5.79383410E-001   4.50065620E-001
   2.50000000E+001   5.81467317E-001   6.51282224E-001   5.35117843E-001
   3.00000000E+001   6.48235645E-001   7.00989208E-001   6.07875407E-001
   3.50000000E+001   7.00859337E-001   7.35031403E-001   6.65471707E-001
   4.00000000E+001   7.41272519E-001   7.57840978E-001   7.10255567E-001
   4.50000000E+001   7.76530396E-001   7.72509079E-001   7.49462038E-001
   5.00000000E+001   8.04374579E-001   7.81241405E-001   7.80889863E-001
   5.50000000E+001   8.28543784E-001   7.85663840E-001   8.08255100E-001
   6.00000000E+001   8.48044003E-001   7.86993855E-001   8.30655804E-001
   6.50000000E+001   8.66233824E-001   7.86173538E-001   8.51359759E-001
   7.00000000E+001   8.79971133E-001   7.83942107E-001   8.67401068E-001
   7.50000000E+001   8.92294273E-001   7.80876946E-001   8.81721105E-001
   8.00000000E+001   9.03492734E-001   7.77419785E-001   8.94630807E-001
   8.50000000E+001   9.13475230E-001   7.73892522E-001   9.06075690E-001
   9.00000000E+001   9.22354727E-001   7.70513393E-001   9.16194285E-001
   9.50000000E+001   9.29402223E-001   7.67413509E-001   9.24302841E-001
   1.00000000E+002   9.36197243E-001   7.64658167E-001   9.31969203E-001
   1.05000000E+002   9.41609661E-001   7.62265164E-001   9.38114001E-001
   1.10000000E+002   9.46676805E-001   7.60221572E-001   9.43779750E-001
   1.15000000E+002   9.51512497E-001   7.58497073E-001   9.49102964E-001
   1.20000000E+002   9.55915080E-001   7.57053551E-001   9.53905269E-001
   1.25000000E+002   9.59547309E-001   7.55851257E-001   9.57868349E-001
   1.30000000E+002   9.62740325E-001   7.54852632E-001   9.61333266E-001
   1.35000000E+002   9.65983768E-001   7.54023977E-001   9.64797911E-001
   1.40000000E+002   9.68937597E-001   7.53336080E-001   9.67934219E-001
   1.45000000E+002   9.71475546E-001   7.52764220E-001   9.70623723E-001
   1.50000000E+002   9.73450240E-001   7.52287801E-001   9.72725389E-001
   1.55000000E+002   9.75748699E-001   7.51889831E-001   9.75127782E-001
   1.60000000E+002   9.77837130E-001   7.51556382E-001   9.77303274E-001
   1.65000000E+002   9.79094778E-001   7.51276078E-001   9.78635491E-001
   1.70000000E+002   9.80765555E-001   7.51039641E-001   9.80367872E-001
   1.75000000E+002   9.82336057E-001   7.50839508E-001   9.81990419E-001
   1.80000000E+002   9.83541625E-001   7.50669508E-001   9.83240537E-001
   1.85000000E+002   9.84647357E-001   7.50524596E-001   9.84384183E-001
   1.90000000E+002   9.85795364E-001   7.50400643E-001   9.85564426E-001
   1.95000000E+002   9.86855746E-001   7.50294255E-001   9.86652461E-001
   2.00000000E+002   9.87803114E-001   7.50202640E-001   9.87623667E-001
   2.05000000E+002   9.88570368E-001   7.50123490E-001   9.88411596E-001
   2.10000000E+002   9.89351506E-001   7.50054894E-001   9.89210583E-001
   2.15000000E+002   9.89958563E-001   7.49995264E-001   9.89833220E-001
   2.20000000E+002   9.90820640E-001   7.49943273E-001   9.90708699E-001
   2.25000000E+002   9.91287954E-001   7.49897814E-001   9.91187907E-001
   2.30000000E+002   9.91858236E-001   7.49857956E-001   9.91768546E-001
   2.35000000E+002   9.92293762E-001   7.49822915E-001   9.92213208E-001
   2.40000000E+002   9.92763074E-001   7.49792030E-001   9.92690544E-001
   2.45000000E+002   9.93308262E-001   7.49764740E-001   9.93242783E-001
