# ./jetvheto -in n3lo-fixed-order/H125-LHC13-R04-mb-0-mt-1725-xmur025-xmuf025-log.fxd -xQ 0.5 -out benchmarks-n3lo-smallR/H125-LHC13-R04-mb-0-mt-1725-xmur025-xmuf025-xQ050-NNLO+NNLLb.R0-1.0.res -scheme b -order 2 -ptmax 500.01 -small-r -fixed_order 2 -loop-mass t -R0 1.0
# process = H    
# collider = pp   
# rts =  13000.000
# M   =    125.000
# muR =     31.250
# muF =     31.250
# Q   =     62.500
# p   =      5.000
# include_c1_squared =   F
# loop_mass  = t   
# alphas(MZ) =    0.11800
# alphas(M) =    0.11264
# alphas(muR) =    0.14091
# Rjet =      0.400
# order = NNLL
# pdf name and set = PDF4LHC15_nnlo_mc.LHgrid,    0
# matching scheme = b
# total cross sections [nb] at LO, NLOdiff, NNLOdiff, N3LOdiff =     0.018140    0.025356    0.006043   -0.002471
#----------------------------------------------------------------------
# the lines that follow give the jet-veto efficiencies as a function of pt
#         pt            matched eff      resummed eff     fixed-order eff
   2.00000000E+001   4.54931596E-001   4.92981461E-001   3.51600386E-001
   2.50000000E+001   5.34966802E-001   5.62428647E-001   4.53985492E-001
   3.00000000E+001   5.98826045E-001   6.10693684E-001   5.35336815E-001
   3.50000000E+001   6.51029246E-001   6.43796177E-001   6.01450914E-001
   4.00000000E+001   6.94184483E-001   6.66047173E-001   6.55707630E-001
   4.50000000E+001   7.30414984E-001   6.80554256E-001   7.00809251E-001
   5.00000000E+001   7.61366063E-001   6.89650263E-001   7.38750758E-001
   5.50000000E+001   7.88014609E-001   6.95113053E-001   7.70859819E-001
   6.00000000E+001   8.11317450E-001   6.98255770E-001   7.98354652E-001
   6.50000000E+001   8.31834680E-001   6.99994184E-001   8.22044881E-001
   7.00000000E+001   8.50007796E-001   7.00924124E-001   8.42597642E-001
   7.50000000E+001   8.65884562E-001   7.01407565E-001   8.60248412E-001
   8.00000000E+001   8.80196506E-001   7.01652210E-001   8.75880788E-001
   8.50000000E+001   8.92830111E-001   7.01771945E-001   8.89499593E-001
   9.00000000E+001   9.04120786E-001   7.01827486E-001   9.01528041E-001
   9.50000000E+001   9.14048979E-001   7.01850612E-001   9.12012715E-001
   1.00000000E+002   9.22991326E-001   7.01857765E-001   9.21377846E-001
   1.05000000E+002   9.31013715E-001   7.01857371E-001   9.29724151E-001
   1.10000000E+002   9.38136049E-001   7.01853703E-001   9.37096897E-001
   1.15000000E+002   9.44592014E-001   7.01848886E-001   9.43747922E-001
   1.20000000E+002   9.50359322E-001   7.01843944E-001   9.49668478E-001
   1.25000000E+002   9.55437223E-001   7.01839333E-001   9.54867796E-001
   1.30000000E+002   9.60075610E-001   7.01835229E-001   9.59603121E-001
   1.35000000E+002   9.64246365E-001   7.01831666E-001   9.63851855E-001
   1.40000000E+002   9.68002912E-001   7.01828617E-001   9.67671517E-001
   1.45000000E+002   9.71442454E-001   7.01826027E-001   9.71162513E-001
   1.50000000E+002   9.74493795E-001   7.01823837E-001   9.74256073E-001
   1.55000000E+002   9.77255324E-001   7.01821986E-001   9.77052447E-001
   1.60000000E+002   9.79781494E-001   7.01820422E-001   9.79607538E-001
   1.65000000E+002   9.82073507E-001   7.01819099E-001   9.81923690E-001
   1.70000000E+002   9.84107155E-001   7.01817977E-001   9.83977585E-001
   1.75000000E+002   9.85968357E-001   7.01817023E-001   9.85855855E-001
   1.80000000E+002   9.87656204E-001   7.01816211E-001   9.87558150E-001
   1.85000000E+002   9.89163368E-001   7.01815516E-001   9.89077597E-001
   1.90000000E+002   9.90562412E-001   7.01814921E-001   9.90487132E-001
   1.95000000E+002   9.91846622E-001   7.01814409E-001   9.91780336E-001
   2.00000000E+002   9.92981585E-001   7.01813968E-001   9.92923037E-001
   2.05000000E+002   9.94040181E-001   7.01813586E-001   9.93988317E-001
   2.10000000E+002   9.95012860E-001   7.01813255E-001   9.94966787E-001
   2.15000000E+002   9.95836768E-001   7.01812967E-001   9.95795730E-001
   2.20000000E+002   9.96622192E-001   7.01812715E-001   9.96585546E-001
   2.25000000E+002   9.97346166E-001   7.01812496E-001   9.97313360E-001
   2.30000000E+002   9.97973200E-001   7.01812303E-001   9.97943763E-001
   2.35000000E+002   9.98543707E-001   7.01812133E-001   9.98517235E-001
   2.40000000E+002   9.99050178E-001   7.01811983E-001   9.99026319E-001
   2.45000000E+002   9.99524499E-001   7.01811851E-001   9.99502951E-001
