# ./jetvheto -in n3lo-fixed-order/H125-LHC13-R04-heft-xmur025-xmuf025-log.fxd -xQ 0.50 -out benchmarks-n3lo-smallR/H125-LHC13-R04-heft-xmur025-xmuf025-xQ050-N3LO+NNLLa.R0-0.5.res -scheme a -order 2 -ptmax 500.01 -fixed_order 3 -small-r -R0 0.5
# process = H    
# collider = pp   
# rts =  13000.000
# M   =    125.000
# muR =     31.250
# muF =     31.250
# Q   =     62.500
# p   =      5.000
# include_c1_squared =   F
# loop_mass  = none
# alphas(MZ) =    0.11800
# alphas(M) =    0.11264
# alphas(muR) =    0.14091
# Rjet =      0.400
# order = NNLL
# pdf name and set = PDF4LHC15_nnlo_mc.LHgrid,    0
# matching scheme = a
# total cross sections [nb] at LO, NLOdiff, NNLOdiff, N3LOdiff =     0.017443    0.024066    0.006043   -0.002471
#----------------------------------------------------------------------
# the lines that follow give the jet-veto efficiencies as a function of pt
#         pt            matched eff      resummed eff     fixed-order eff
   2.00000000E+001   4.68830687E-001   4.86450089E-001   4.52894570E-001
   2.50000000E+001   5.57549281E-001   5.58507820E-001   5.42537588E-001
   3.00000000E+001   6.26593236E-001   6.08683400E-001   6.13076270E-001
   3.50000000E+001   6.81086095E-001   6.43164721E-001   6.69412150E-001
   4.00000000E+001   7.25871906E-001   6.66402372E-001   7.16271778E-001
   4.50000000E+001   7.63683488E-001   6.81609079E-001   7.56031916E-001
   5.00000000E+001   7.94715366E-001   6.91195958E-001   7.88729624E-001
   5.50000000E+001   8.22514326E-001   6.96999603E-001   8.17925477E-001
   6.00000000E+001   8.44950818E-001   7.00377187E-001   8.41437580E-001
   6.50000000E+001   8.61827194E-001   7.02276925E-001   8.59133924E-001
   7.00000000E+001   8.78745625E-001   7.03317895E-001   8.76696603E-001
   7.50000000E+001   8.93124772E-001   7.03878261E-001   8.91562355E-001
   8.00000000E+001   9.04473018E-001   7.04176740E-001   9.03270471E-001
   8.50000000E+001   9.15397173E-001   7.04334613E-001   9.14467346E-001
   9.00000000E+001   9.24895115E-001   7.04417531E-001   9.24170466E-001
   9.50000000E+001   9.30940721E-001   7.04460578E-001   9.30369963E-001
   1.00000000E+002   9.39029601E-001   7.04482420E-001   9.38578001E-001
   1.05000000E+002   9.44436944E-001   7.04492998E-001   9.44075791E-001
   1.10000000E+002   9.50762663E-001   7.04497625E-001   9.50472153E-001
   1.15000000E+002   9.55952886E-001   7.04499153E-001   9.55717235E-001
   1.20000000E+002   9.59575061E-001   7.04499114E-001   9.59382367E-001
   1.25000000E+002   9.62610520E-001   7.04498333E-001   9.62451953E-001
   1.30000000E+002   9.66203429E-001   7.04497247E-001   9.66072159E-001
   1.35000000E+002   9.68945796E-001   7.04496085E-001   9.68836382E-001
   1.40000000E+002   9.71614288E-001   7.04494960E-001   9.71522619E-001
   1.45000000E+002   9.74084449E-001   7.04493926E-001   9.74007208E-001
   1.50000000E+002   9.76085833E-001   7.04493001E-001   9.76020417E-001
   1.55000000E+002   9.77958518E-001   7.04492186E-001   9.77902848E-001
   1.60000000E+002   9.80197357E-001   7.04491477E-001   9.80149780E-001
   1.65000000E+002   9.81549141E-001   7.04490862E-001   9.81508266E-001
   1.70000000E+002   9.82566183E-001   7.04490331E-001   9.82530922E-001
   1.75000000E+002   9.84239245E-001   7.04489874E-001   9.84208723E-001
   1.80000000E+002   9.85058001E-001   7.04489479E-001   9.85031464E-001
   1.85000000E+002   9.86291917E-001   7.04489138E-001   9.86268779E-001
   1.90000000E+002   9.87127065E-001   7.04488843E-001   9.87106809E-001
   1.95000000E+002   9.88179543E-001   7.04488588E-001   9.88161757E-001
   2.00000000E+002   9.88757262E-001   7.04488367E-001   9.88741591E-001
   2.05000000E+002   9.89389501E-001   7.04488175E-001   9.89375653E-001
   2.10000000E+002   9.89967179E-001   7.04488007E-001   9.89954905E-001
   2.15000000E+002   9.90801219E-001   7.04487861E-001   9.90790317E-001
   2.20000000E+002   9.91242517E-001   7.04487733E-001   9.91232803E-001
   2.25000000E+002   9.91904772E-001   7.04487621E-001   9.91896097E-001
   2.30000000E+002   9.92298753E-001   7.04487522E-001   9.92290987E-001
   2.35000000E+002   9.92514480E-001   7.04487435E-001   9.92507509E-001
   2.40000000E+002   9.93053819E-001   7.04487359E-001   9.93047551E-001
   2.45000000E+002   9.93477461E-001   7.04487291E-001   9.93471813E-001
