# ./jetvheto -in n3lo-fixed-order/H125-LHC13-R04-mb-475-mt-1725-xmur050-xmuf025-log.fxd -xQ 0.0625 -out benchmarks-n3lo-smallR/H125-LHC13-R04-mb-475-mt-1725-xmur050-xmuf025-xQ0625-NNLO+NNLLa.R0-0.5.res -scheme a -order 2 -ptmax 500.01 -fixed_order 2 -small-r -loop-mass t+b -R0 0.5
# process = H    
# collider = pp   
# rts =  13000.000
# M   =    125.000
# muR =     62.500
# muF =     31.250
# Q   =      7.812
# p   =      5.000
# include_c1_squared =   F
# loop_mass  = t+b 
# alphas(MZ) =    0.11800
# alphas(M) =    0.11264
# alphas(muR) =    0.12516
# Rjet =      0.400
# order = NNLL
# pdf name and set = PDF4LHC15_nnlo_mc.LHgrid,    0
# matching scheme = a
# total cross sections [nb] at LO, NLOdiff, NNLOdiff, N3LOdiff =     0.012926    0.020318    0.009723    0.001827
#----------------------------------------------------------------------
# the lines that follow give the jet-veto efficiencies as a function of pt
#         pt            matched eff      resummed eff     fixed-order eff
   2.00000000E+001   4.49242488E-001   1.67916425E-001   4.49376256E-001
   2.50000000E+001   5.33946445E-001   1.68274882E-001   5.34025121E-001
   3.00000000E+001   6.00701346E-001   1.68379872E-001   6.00744622E-001
   3.50000000E+001   6.55008739E-001   1.68417832E-001   6.55033276E-001
   4.00000000E+001   6.99711426E-001   1.68433761E-001   6.99725943E-001
   4.50000000E+001   7.37089980E-001   1.68441228E-001   7.37098941E-001
   5.00000000E+001   7.68674297E-001   1.68445041E-001   7.68680039E-001
   5.50000000E+001   7.95498312E-001   1.68447125E-001   7.95502115E-001
   6.00000000E+001   8.18570034E-001   1.68448330E-001   8.18572628E-001
   6.50000000E+001   8.38540651E-001   1.68449059E-001   8.38542465E-001
   7.00000000E+001   8.56042292E-001   1.68449517E-001   8.56043590E-001
   7.50000000E+001   8.71121283E-001   1.68449816E-001   8.71122230E-001
   8.00000000E+001   8.84523436E-001   1.68450015E-001   8.84524140E-001
   8.50000000E+001   8.96376134E-001   1.68450152E-001   8.96376665E-001
   9.00000000E+001   9.06824445E-001   1.68450249E-001   9.06824852E-001
   9.50000000E+001   9.15992922E-001   1.68450318E-001   9.15993237E-001
   1.00000000E+002   9.24172322E-001   1.68450368E-001   9.24172569E-001
   1.05000000E+002   9.31534584E-001   1.68450405E-001   9.31534780E-001
   1.10000000E+002   9.38076742E-001   1.68450433E-001   9.38076899E-001
   1.15000000E+002   9.43987250E-001   1.68450454E-001   9.43987376E-001
   1.20000000E+002   9.49321761E-001   1.68450471E-001   9.49321865E-001
   1.25000000E+002   9.54077005E-001   1.68450483E-001   9.54077090E-001
   1.30000000E+002   9.58387931E-001   1.68450493E-001   9.58388001E-001
   1.35000000E+002   9.62267827E-001   1.68450501E-001   9.62267886E-001
   1.40000000E+002   9.65764288E-001   1.68450508E-001   9.65764337E-001
   1.45000000E+002   9.68995984E-001   1.68450513E-001   9.68996025E-001
   1.50000000E+002   9.71896839E-001   1.68450517E-001   9.71896874E-001
   1.55000000E+002   9.74534464E-001   1.68450521E-001   9.74534494E-001
   1.60000000E+002   9.76950112E-001   1.68450523E-001   9.76950138E-001
   1.65000000E+002   9.79136243E-001   1.68450526E-001   9.79136265E-001
   1.70000000E+002   9.81117059E-001   1.68450528E-001   9.81117078E-001
   1.75000000E+002   9.82920273E-001   1.68450529E-001   9.82920289E-001
   1.80000000E+002   9.84557289E-001   1.68450531E-001   9.84557304E-001
   1.85000000E+002   9.86043051E-001   1.68450532E-001   9.86043063E-001
   1.90000000E+002   9.87423020E-001   1.68450533E-001   9.87423030E-001
   1.95000000E+002   9.88687100E-001   1.68450534E-001   9.88687110E-001
   2.00000000E+002   9.89835052E-001   1.68450534E-001   9.89835060E-001
   2.05000000E+002   9.90896435E-001   1.68450535E-001   9.90896442E-001
   2.10000000E+002   9.91868374E-001   1.68450536E-001   9.91868380E-001
   2.15000000E+002   9.92725833E-001   1.68450536E-001   9.92725838E-001
   2.20000000E+002   9.93536932E-001   1.68450536E-001   9.93536937E-001
   2.25000000E+002   9.94274049E-001   1.68450537E-001   9.94274053E-001
   2.30000000E+002   9.94937509E-001   1.68450537E-001   9.94937514E-001
   2.35000000E+002   9.95557212E-001   1.68450537E-001   9.95557216E-001
   2.40000000E+002   9.96107434E-001   1.68450538E-001   9.96107437E-001
   2.45000000E+002   9.96610272E-001   1.68450538E-001   9.96610275E-001
