# ./jetvheto -in n3lo-fixed-order/H125-LHC13-R04-mb-0-mt-1725-xmur200-xmuf100-log.fxd -xQ 0.25 -out benchmarks-n3lo-smallR/H125-LHC13-R04-mb-0-mt-1725-xmur200-xmuf100-xQ025-NNLO+NNLLb.R0-1.5.res -scheme b -order 2 -ptmax 500.01 -small-r -fixed_order 2 -loop-mass t -R0 1.5
# process = H    
# collider = pp   
# rts =  13000.000
# M   =    125.000
# muR =    250.000
# muF =    125.000
# Q   =     31.250
# p   =      5.000
# include_c1_squared =   F
# loop_mass  = t   
# alphas(MZ) =    0.11800
# alphas(M) =    0.11264
# alphas(muR) =    0.10244
# Rjet =      0.400
# order = NNLL
# pdf name and set = PDF4LHC15_nnlo_mc.LHgrid,    0
# matching scheme = b
# total cross sections [nb] at LO, NLOdiff, NNLOdiff, N3LOdiff =     0.011501    0.015066    0.010526    0.005600
#----------------------------------------------------------------------
# the lines that follow give the jet-veto efficiencies as a function of pt
#         pt            matched eff      resummed eff     fixed-order eff
   2.00000000E+001   4.15834267E-001   5.76214440E-001   3.67201827E-001
   2.50000000E+001   4.97513531E-001   6.51650227E-001   4.73161072E-001
   3.00000000E+001   5.65583095E-001   6.95951353E-001   5.53722917E-001
   3.50000000E+001   6.22988165E-001   7.20037813E-001   6.17253656E-001
   4.00000000E+001   6.71398805E-001   7.32683287E-001   6.68576569E-001
   4.50000000E+001   7.12029377E-001   7.39364117E-001   7.10591480E-001
   5.00000000E+001   7.46434665E-001   7.43002588E-001   7.45672623E-001
   5.50000000E+001   7.75644581E-001   7.45063917E-001   7.75224424E-001
   6.00000000E+001   8.00706880E-001   7.46279869E-001   8.00466992E-001
   6.50000000E+001   8.22309982E-001   7.47024834E-001   8.22168588E-001
   7.00000000E+001   8.40924751E-001   7.47497158E-001   8.40838970E-001
   7.50000000E+001   8.57271659E-001   7.47805920E-001   8.57218355E-001
   8.00000000E+001   8.71604012E-001   7.48013320E-001   8.71570191E-001
   8.50000000E+001   8.84147208E-001   7.48156041E-001   8.84125319E-001
   9.00000000E+001   8.95244051E-001   7.48256391E-001   8.95229677E-001
   9.50000000E+001   9.05030920E-001   7.48328324E-001   9.05021342E-001
   1.00000000E+002   9.13777813E-001   7.48380790E-001   9.13771358E-001
   1.05000000E+002   9.21581891E-001   7.48419660E-001   9.21577501E-001
   1.10000000E+002   9.28485576E-001   7.48448870E-001   9.28482563E-001
   1.15000000E+002   9.34753171E-001   7.48471107E-001   9.34751096E-001
   1.20000000E+002   9.40355283E-001   7.48488236E-001   9.40353848E-001
   1.25000000E+002   9.45421162E-001   7.48501575E-001   9.45420170E-001
   1.30000000E+002   9.50013438E-001   7.48512067E-001   9.50012754E-001
   1.35000000E+002   9.54139776E-001   7.48520395E-001   9.54139308E-001
   1.40000000E+002   9.57892718E-001   7.48527064E-001   9.57892400E-001
   1.45000000E+002   9.61329528E-001   7.48532445E-001   9.61329318E-001
   1.50000000E+002   9.64412499E-001   7.48536821E-001   9.64412364E-001
   1.55000000E+002   9.67265488E-001   7.48540403E-001   9.67265406E-001
   1.60000000E+002   9.69867920E-001   7.48543354E-001   9.69867876E-001
   1.65000000E+002   9.72229746E-001   7.48545800E-001   9.72229728E-001
   1.70000000E+002   9.74397644E-001   7.48547840E-001   9.74397644E-001
   1.75000000E+002   9.76352429E-001   7.48549550E-001   9.76352441E-001
   1.80000000E+002   9.78164650E-001   7.48550990E-001   9.78164670E-001
   1.85000000E+002   9.79813068E-001   7.48552209E-001   9.79813093E-001
   1.90000000E+002   9.81339727E-001   7.48553245E-001   9.81339755E-001
   1.95000000E+002   9.82748324E-001   7.48554130E-001   9.82748354E-001
   2.00000000E+002   9.84029005E-001   7.48554889E-001   9.84029035E-001
   2.05000000E+002   9.85224051E-001   7.48555542E-001   9.85224081E-001
   2.10000000E+002   9.86306170E-001   7.48556106E-001   9.86306199E-001
   2.15000000E+002   9.87297683E-001   7.48556595E-001   9.87297711E-001
   2.20000000E+002   9.88224588E-001   7.48557020E-001   9.88224615E-001
   2.25000000E+002   9.89074333E-001   7.48557391E-001   9.89074358E-001
   2.30000000E+002   9.89861863E-001   7.48557716E-001   9.89861887E-001
   2.35000000E+002   9.90598308E-001   7.48558001E-001   9.90598331E-001
   2.40000000E+002   9.91263027E-001   7.48558252E-001   9.91263048E-001
   2.45000000E+002   9.91886593E-001   7.48558473E-001   9.91886612E-001
