# ./jetvheto -in n3lo-fixed-order/H125-LHC13-R04-mb-475-mt-1725-xmur050-xmuf025-log.fxd -xQ 0.0625 -out benchmarks-n3lo-smallR/H125-LHC13-R04-mb-475-mt-1725-xmur050-xmuf025-xQ0625-N3LO+NNLLa.res -scheme a -order 2 -ptmax 500.01 -fixed_order 3 -loop-mass t+b
# process = H    
# collider = pp   
# rts =  13000.000
# M   =    125.000
# muR =     62.500
# muF =     31.250
# Q   =      7.812
# p   =      5.000
# include_c1_squared =   F
# loop_mass  = t+b 
# alphas(MZ) =    0.11800
# alphas(M) =    0.11264
# alphas(muR) =    0.12516
# Rjet =      0.400
# order = NNLL
# pdf name and set = PDF4LHC15_nnlo_mc.LHgrid,    0
# matching scheme = a
# total cross sections [nb] at LO, NLOdiff, NNLOdiff, N3LOdiff =     0.012926    0.020318    0.009723    0.001827
#----------------------------------------------------------------------
# the lines that follow give the jet-veto efficiencies as a function of pt
#         pt            matched eff      resummed eff     fixed-order eff
   2.00000000E+001   4.39747028E-001   1.67916375E-001   4.39805765E-001
   2.50000000E+001   5.27848867E-001   1.68274866E-001   5.27879518E-001
   3.00000000E+001   5.97747486E-001   1.68379865E-001   5.97763702E-001
   3.50000000E+001   6.54443900E-001   1.68417828E-001   6.54452868E-001
   4.00000000E+001   7.01658404E-001   1.68433759E-001   7.01663673E-001
   4.50000000E+001   7.41593243E-001   1.68441227E-001   7.41596500E-001
   5.00000000E+001   7.74971752E-001   1.68445040E-001   7.74973831E-001
   5.50000000E+001   8.04100170E-001   1.68447125E-001   8.04101557E-001
   6.00000000E+001   8.28255532E-001   1.68448330E-001   8.28256473E-001
   6.50000000E+001   8.47756883E-001   1.68449059E-001   8.47757528E-001
   7.00000000E+001   8.66052932E-001   1.68449517E-001   8.66053392E-001
   7.50000000E+001   8.81618683E-001   1.68449816E-001   8.81619018E-001
   8.00000000E+001   8.94655778E-001   1.68450015E-001   8.94656024E-001
   8.50000000E+001   9.06684187E-001   1.68450152E-001   9.06684371E-001
   9.00000000E+001   9.17185366E-001   1.68450249E-001   9.17185507E-001
   9.50000000E+001   9.25080806E-001   1.68450318E-001   9.25080912E-001
   1.00000000E+002   9.33601713E-001   1.68450368E-001   9.33601797E-001
   1.05000000E+002   9.40245811E-001   1.68450405E-001   9.40245876E-001
   1.10000000E+002   9.46950737E-001   1.68450433E-001   9.46950790E-001
   1.15000000E+002   9.52730682E-001   1.68450454E-001   9.52730725E-001
   1.20000000E+002   9.57371211E-001   1.68450471E-001   9.57371245E-001
   1.25000000E+002   9.61397227E-001   1.68450483E-001   9.61397255E-001
   1.30000000E+002   9.65488123E-001   1.68450493E-001   9.65488145E-001
   1.35000000E+002   9.68881287E-001   1.68450501E-001   9.68881306E-001
   1.40000000E+002   9.72054282E-001   1.68450508E-001   9.72054298E-001
   1.45000000E+002   9.74992601E-001   1.68450513E-001   9.74992614E-001
   1.50000000E+002   9.77508443E-001   1.68450517E-001   9.77508455E-001
   1.55000000E+002   9.79815326E-001   1.68450521E-001   9.79815336E-001
   1.60000000E+002   9.82216143E-001   1.68450523E-001   9.82216151E-001
   1.65000000E+002   9.83996360E-001   1.68450526E-001   9.83996367E-001
   1.70000000E+002   9.85488607E-001   1.68450528E-001   9.85488613E-001
   1.75000000E+002   9.87249116E-001   1.68450529E-001   9.87249121E-001
   1.80000000E+002   9.88451817E-001   1.68450531E-001   9.88451821E-001
   1.85000000E+002   9.89819377E-001   1.68450532E-001   9.89819381E-001
   1.90000000E+002   9.90908824E-001   1.68450533E-001   9.90908828E-001
   1.95000000E+002   9.92062778E-001   1.68450534E-001   9.92062781E-001
   2.00000000E+002   9.92895467E-001   1.68450534E-001   9.92895469E-001
   2.05000000E+002   9.93708826E-001   1.68450535E-001   9.93708828E-001
   2.10000000E+002   9.94443404E-001   1.68450536E-001   9.94443406E-001
   2.15000000E+002   9.95259978E-001   1.68450536E-001   9.95259980E-001
   2.20000000E+002   9.95836253E-001   1.68450536E-001   9.95836254E-001
   2.25000000E+002   9.96497574E-001   1.68450537E-001   9.96497575E-001
   2.30000000E+002   9.96975933E-001   1.68450537E-001   9.96975934E-001
   2.35000000E+002   9.97332213E-001   1.68450537E-001   9.97332214E-001
   2.40000000E+002   9.97830346E-001   1.68450538E-001   9.97830347E-001
   2.45000000E+002   9.98235749E-001   1.68450538E-001   9.98235750E-001
