# ./jetvheto -in n3lo-fixed-order/H125-LHC13-R04-heft-xmur100-xmuf100-log.fxd -xQ 0.75 -out benchmarks-n3lo-smallR/H125-LHC13-R04-heft-xmur100-xmuf100-xQ075-NNLO+NNLLb.res -scheme b -order 2 -ptmax 500.01 -fixed_order 2
# process = H    
# collider = pp   
# rts =  13000.000
# M   =    125.000
# muR =    125.000
# muF =    125.000
# Q   =     93.750
# p   =      5.000
# include_c1_squared =   F
# loop_mass  = none
# alphas(MZ) =    0.11800
# alphas(M) =    0.11264
# alphas(muR) =    0.11264
# Rjet =      0.400
# order = NNLL
# pdf name and set = PDF4LHC15_nnlo_mc.LHgrid,    0
# matching scheme = b
# total cross sections [nb] at LO, NLOdiff, NNLOdiff, N3LOdiff =     0.012945    0.016716    0.010146    0.003834
#----------------------------------------------------------------------
# the lines that follow give the jet-veto efficiencies as a function of pt
#         pt            matched eff      resummed eff     fixed-order eff
   2.00000000E+001   4.25130996E-001   5.38212874E-001   3.33152974E-001
   2.50000000E+001   5.10766999E-001   6.24368510E-001   4.42354030E-001
   3.00000000E+001   5.80219762E-001   6.85635450E-001   5.26280770E-001
   3.50000000E+001   6.36923481E-001   7.28865450E-001   5.92590428E-001
   4.00000000E+001   6.83882368E-001   7.58953812E-001   6.46413459E-001
   4.50000000E+001   7.22881522E-001   7.79394390E-001   6.90650611E-001
   5.00000000E+001   7.55631620E-001   7.92699727E-001   7.27636368E-001
   5.50000000E+001   7.83231952E-001   8.00733426E-001   7.58824117E-001
   6.00000000E+001   8.06786116E-001   8.04910474E-001   7.85509225E-001
   6.50000000E+001   8.26997915E-001   8.06330318E-001   8.08501674E-001
   7.00000000E+001   8.44310115E-001   8.05856174E-001   8.28308351E-001
   7.50000000E+001   8.59372024E-001   8.04163115E-001   8.45602652E-001
   8.00000000E+001   8.72523297E-001   8.01771480E-001   8.60742611E-001
   8.50000000E+001   8.84005119E-001   7.99067465E-001   8.73982907E-001
   9.00000000E+001   8.94252048E-001   7.96322368E-001   8.85762882E-001
   9.50000000E+001   9.03292199E-001   7.93710894E-001   8.96129047E-001
   1.00000000E+002   9.11377222E-001   7.91332260E-001   9.05347624E-001
   1.05000000E+002   9.18643863E-001   7.89230654E-001   9.13574722E-001
   1.10000000E+002   9.25149650E-001   7.87413427E-001   9.20889329E-001
   1.15000000E+002   9.31079704E-001   7.85865763E-001   9.27495781E-001
   1.20000000E+002   9.36426842E-001   7.84561179E-001   9.33407561E-001
   1.25000000E+002   9.41289082E-001   7.83468816E-001   9.38739831E-001
   1.30000000E+002   9.45702290E-001   7.82557724E-001   9.43544289E-001
   1.35000000E+002   9.49754439E-001   7.81799212E-001   9.47922026E-001
   1.40000000E+002   9.53393953E-001   7.81167890E-001   9.51833307E-001
   1.45000000E+002   9.56791906E-001   7.80641959E-001   9.55457933E-001
   1.50000000E+002   9.59830363E-001   7.80203057E-001   9.58686494E-001
   1.55000000E+002   9.62634848E-001   7.79835918E-001   9.61650523E-001
   1.60000000E+002   9.65230168E-001   7.79527952E-001   9.64380158E-001
   1.65000000E+002   9.67589740E-001   7.79268825E-001   9.66853279E-001
   1.70000000E+002   9.69786794E-001   7.79050081E-001   9.69146535E-001
   1.75000000E+002   9.71776736E-001   7.78864804E-001   9.71218357E-001
   1.80000000E+002   9.73634595E-001   7.78707335E-001   9.73146048E-001
   1.85000000E+002   9.75327167E-001   7.78573045E-001   9.74898433E-001
   1.90000000E+002   9.76896360E-001   7.78458130E-001   9.76518987E-001
   1.95000000E+002   9.78374524E-001   7.78359468E-001   9.78041382E-001
   2.00000000E+002   9.79727899E-001   7.78274481E-001   9.79433004E-001
   2.05000000E+002   9.80988345E-001   7.78201040E-001   9.80726600E-001
   2.10000000E+002   9.82145815E-001   7.78137378E-001   9.81912904E-001
   2.15000000E+002   9.83205008E-001   7.78082027E-001   9.82997248E-001
   2.20000000E+002   9.84204663E-001   7.78033759E-001   9.84018885E-001
   2.25000000E+002   9.85128549E-001   7.77991549E-001   9.84962045E-001
   2.30000000E+002   9.85992112E-001   7.77954536E-001   9.85842551E-001
   2.35000000E+002   9.86815643E-001   7.77921992E-001   9.86681004E-001
   2.40000000E+002   9.87560788E-001   7.77893306E-001   9.87439341E-001
   2.45000000E+002   9.88265912E-001   7.77867956E-001   9.88156143E-001
