# ./jetvheto -in n3lo-fixed-order/H125-LHC13-R04-mb-0-mt-1725-xmur050-xmuf050-log.fxd -xQ 0.75 -out benchmarks-n3lo-smallR/H125-LHC13-R04-mb-0-mt-1725-xmur050-xmuf050-xQ075-N3LO+NNLLa.R0-1.5.res -scheme a -order 2 -ptmax 500.01 -small-r -fixed_order 3 -loop-mass t -R0 1.5
# process = H    
# collider = pp   
# rts =  13000.000
# M   =    125.000
# muR =     62.500
# muF =     62.500
# Q   =     93.750
# p   =      5.000
# include_c1_squared =   F
# loop_mass  = t   
# alphas(MZ) =    0.11800
# alphas(M) =    0.11264
# alphas(muR) =    0.12516
# Rjet =      0.400
# order = NNLL
# pdf name and set = PDF4LHC15_nnlo_mc.LHgrid,    0
# matching scheme = a
# total cross sections [nb] at LO, NLOdiff, NNLOdiff, N3LOdiff =     0.015885    0.020561    0.008998    0.001413
#----------------------------------------------------------------------
# the lines that follow give the jet-veto efficiencies as a function of pt
#         pt            matched eff      resummed eff     fixed-order eff
   2.00000000E+001   4.98122750E-001   5.67199814E-001   4.58478332E-001
   2.50000000E+001   5.80153462E-001   6.43332375E-001   5.43713081E-001
   3.00000000E+001   6.48569101E-001   6.96217303E-001   6.16066731E-001
   3.50000000E+001   7.02598714E-001   7.32644747E-001   6.73487735E-001
   4.00000000E+001   7.44044129E-001   7.57254439E-001   7.18067162E-001
   4.50000000E+001   7.79916774E-001   7.73288764E-001   7.56928051E-001
   5.00000000E+001   8.08473775E-001   7.83062247E-001   7.88284226E-001
   5.50000000E+001   8.32826555E-001   7.88279692E-001   8.15210520E-001
   6.00000000E+001   8.52663009E-001   7.90216646E-001   8.37433297E-001
   6.50000000E+001   8.71048823E-001   7.89858736E-001   8.57921417E-001
   7.00000000E+001   8.84943082E-001   7.87978416E-001   8.73778810E-001
   7.50000000E+001   8.97366524E-001   7.85178812E-001   8.87924776E-001
   8.00000000E+001   9.08621561E-001   7.81921766E-001   9.00670973E-001
   8.50000000E+001   9.18634810E-001   7.78544906E-001   9.11969998E-001
   9.00000000E+001   9.27496799E-001   7.75278707E-001   9.21929710E-001
   9.50000000E+001   9.34527507E-001   7.72263692E-001   9.29907319E-001
   1.00000000E+002   9.41345294E-001   7.69572322E-001   9.37506036E-001
   1.05000000E+002   9.46723059E-001   7.67227771E-001   9.43543485E-001
   1.10000000E+002   9.51724628E-001   7.65221106E-001   9.49085884E-001
   1.15000000E+002   9.56520260E-001   7.63524960E-001   9.54323006E-001
   1.20000000E+002   9.60874242E-001   7.62103383E-001   9.59039767E-001
   1.25000000E+002   9.64506451E-001   7.60918217E-001   9.62972878E-001
   1.30000000E+002   9.67652372E-001   7.59933072E-001   9.66366470E-001
   1.35000000E+002   9.70815182E-001   7.59115115E-001   9.69730923E-001
   1.40000000E+002   9.73714800E-001   7.58435776E-001   9.72797037E-001
   1.45000000E+002   9.76244977E-001   7.57870816E-001   9.75465608E-001
   1.50000000E+002   9.78215614E-001   7.57399999E-001   9.77552300E-001
   1.55000000E+002   9.80482356E-001   7.57006610E-001   9.79914033E-001
   1.60000000E+002   9.82518065E-001   7.56676932E-001   9.82029350E-001
   1.65000000E+002   9.83755463E-001   7.56399750E-001   9.83335000E-001
   1.70000000E+002   9.85377449E-001   7.56165914E-001   9.85013351E-001
   1.75000000E+002   9.86876808E-001   7.55967958E-001   9.86560338E-001
   1.80000000E+002   9.88022246E-001   7.55799791E-001   9.87746562E-001
   1.85000000E+002   9.89077585E-001   7.55656430E-001   9.88836616E-001
   1.90000000E+002   9.90163625E-001   7.55533794E-001   9.89952168E-001
   1.95000000E+002   9.91168210E-001   7.55428530E-001   9.90982071E-001
   2.00000000E+002   9.92056886E-001   7.55337878E-001   9.91892575E-001
   2.05000000E+002   9.92756356E-001   7.55259558E-001   9.92610981E-001
   2.10000000E+002   9.93460691E-001   7.55191678E-001   9.93331661E-001
   2.15000000E+002   9.94006810E-001   7.55132667E-001   9.93892050E-001
   2.20000000E+002   9.94791565E-001   7.55081216E-001   9.94689076E-001
   2.25000000E+002   9.95195035E-001   7.55036227E-001   9.95103439E-001
   2.30000000E+002   9.95695213E-001   7.54996781E-001   9.95613102E-001
   2.35000000E+002   9.96058101E-001   7.54962101E-001   9.95984357E-001
   2.40000000E+002   9.96455408E-001   7.54931534E-001   9.96389013E-001
   2.45000000E+002   9.96921972E-001   7.54904524E-001   9.96862033E-001
