# ./jetvheto -in n3lo-fixed-order/H125-LHC13-R04-mb-475-mt-1725-xmur100-xmuf200-log.fxd -xQ 0.5 -out benchmarks-n3lo-smallR/H125-LHC13-R04-mb-475-mt-1725-xmur100-xmuf200-xQ050-N3LO+NNLLb.R0-1.5.res -scheme b -order 2 -ptmax 500.01 -fixed_order 3 -small-r -loop-mass t+b -R0 1.5
# process = H    
# collider = pp   
# rts =  13000.000
# M   =    125.000
# muR =    125.000
# muF =    250.000
# Q   =     62.500
# p   =      5.000
# include_c1_squared =   F
# loop_mass  = t+b 
# alphas(MZ) =    0.11800
# alphas(M) =    0.11264
# alphas(muR) =    0.11264
# Rjet =      0.400
# order = NNLL
# pdf name and set = PDF4LHC15_nnlo_mc.LHgrid,    0
# matching scheme = b
# total cross sections [nb] at LO, NLOdiff, NNLOdiff, N3LOdiff =     0.012791    0.017144    0.009991    0.003297
#----------------------------------------------------------------------
# the lines that follow give the jet-veto efficiencies as a function of pt
#         pt            matched eff      resummed eff     fixed-order eff
   2.00000000E+001   4.30924106E-001   5.21413861E-001   3.98403480E-001
   2.50000000E+001   5.18785204E-001   5.98417471E-001   4.96267892E-001
   3.00000000E+001   5.87724961E-001   6.52303880E-001   5.71031797E-001
   3.50000000E+001   6.45369420E-001   6.89534832E-001   6.32752564E-001
   4.00000000E+001   6.92862578E-001   7.14736426E-001   6.83141463E-001
   4.50000000E+001   7.31030434E-001   7.31305631E-001   7.23442380E-001
   5.00000000E+001   7.65493209E-001   7.41813222E-001   7.59617644E-001
   5.50000000E+001   7.93137206E-001   7.48220448E-001   7.88581283E-001
   6.00000000E+001   8.16888880E-001   7.51984121E-001   8.13375233E-001
   6.50000000E+001   8.37060184E-001   7.54127531E-001   8.34358241E-001
   7.00000000E+001   8.55811031E-001   7.55322163E-001   8.53732779E-001
   7.50000000E+001   8.71067153E-001   7.55980373E-001   8.69466670E-001
   8.00000000E+001   8.84361122E-001   7.56342086E-001   8.83123366E-001
   8.50000000E+001   8.96349564E-001   7.56541701E-001   8.95386863E-001
   9.00000000E+001   9.06473718E-001   7.56652830E-001   9.05719910E-001
   9.50000000E+001   9.16215908E-001   7.56715371E-001   9.15620884E-001
   1.00000000E+002   9.24299244E-001   7.56750983E-001   9.23826352E-001
   1.05000000E+002   9.31362757E-001   7.56771506E-001   9.30983974E-001
   1.10000000E+002   9.37419336E-001   7.56783452E-001   9.37113690E-001
   1.15000000E+002   9.43321968E-001   7.56790458E-001   9.43073389E-001
   1.20000000E+002   9.48703508E-001   7.56794581E-001   9.48499863E-001
   1.25000000E+002   9.53033434E-001   7.56797005E-001   9.52865589E-001
   1.30000000E+002   9.57265176E-001   7.56798418E-001   9.57125883E-001
   1.35000000E+002   9.60797246E-001   7.56799224E-001   9.60680960E-001
   1.40000000E+002   9.64504138E-001   7.56799667E-001   9.64406447E-001
   1.45000000E+002   9.67293504E-001   7.56799890E-001   9.67211040E-001
   1.50000000E+002   9.70131019E-001   7.56799984E-001   9.70061020E-001
   1.55000000E+002   9.72638150E-001   7.56800001E-001   9.72578448E-001
   1.60000000E+002   9.74785567E-001   7.56799975E-001   9.74734409E-001
   1.65000000E+002   9.76611679E-001   7.56799925E-001   9.76567658E-001
   1.70000000E+002   9.78686438E-001   7.56799864E-001   9.78648382E-001
   1.75000000E+002   9.80304613E-001   7.56799800E-001   9.80271594E-001
   1.80000000E+002   9.82173922E-001   7.56799736E-001   9.82145152E-001
   1.85000000E+002   9.83377493E-001   7.56799675E-001   9.83352349E-001
   1.90000000E+002   9.84672859E-001   7.56799618E-001   9.84650805E-001
   1.95000000E+002   9.85806937E-001   7.56799566E-001   9.85787530E-001
   2.00000000E+002   9.87145439E-001   7.56799518E-001   9.87128304E-001
   2.05000000E+002   9.87959600E-001   7.56799476E-001   9.87944432E-001
   2.10000000E+002   9.88749235E-001   7.56799437E-001   9.88735771E-001
   2.15000000E+002   9.89662889E-001   7.56799403E-001   9.89650901E-001
   2.20000000E+002   9.90511623E-001   7.56799372E-001   9.90500922E-001
   2.25000000E+002   9.91124738E-001   7.56799345E-001   9.91115165E-001
   2.30000000E+002   9.91721334E-001   7.56799320E-001   9.91712748E-001
   2.35000000E+002   9.92371600E-001   7.56799298E-001   9.92363881E-001
   2.40000000E+002   9.92932805E-001   7.56799279E-001   9.92925851E-001
   2.45000000E+002   9.93477817E-001   7.56799261E-001   9.93471538E-001
