# ./jetvheto -in n3lo-fixed-order/H125-LHC13-R04-heft-xmur025-xmuf050-log.fxd -xQ 0.50 -out benchmarks-n3lo-smallR/H125-LHC13-R04-heft-xmur025-xmuf050-xQ050-NNLO+NNLLa.R0-0.5.res -scheme a -order 2 -ptmax 500.01 -fixed_order 2 -small-r -R0 0.5
# process = H    
# collider = pp   
# rts =  13000.000
# M   =    125.000
# muR =     31.250
# muF =     62.500
# Q   =     62.500
# p   =      5.000
# include_c1_squared =   F
# loop_mass  = none
# alphas(MZ) =    0.11800
# alphas(M) =    0.11264
# alphas(muR) =    0.14091
# Rjet =      0.400
# order = NNLL
# pdf name and set = PDF4LHC15_nnlo_mc.LHgrid,    0
# matching scheme = a
# total cross sections [nb] at LO, NLOdiff, NNLOdiff, N3LOdiff =     0.019087    0.023444    0.005009   -0.002663
#----------------------------------------------------------------------
# the lines that follow give the jet-veto efficiencies as a function of pt
#         pt            matched eff      resummed eff     fixed-order eff
   2.00000000E+001   4.73264678E-001   4.93175277E-001   4.19560537E-001
   2.50000000E+001   5.56345167E-001   5.63270090E-001   5.10716260E-001
   3.00000000E+001   6.21953839E-001   6.11629589E-001   5.83434226E-001
   3.50000000E+001   6.74184521E-001   6.44563826E-001   6.41987822E-001
   4.00000000E+001   7.16584778E-001   6.66508499E-001   6.90031233E-001
   4.50000000E+001   7.51503649E-001   6.80658840E-001   7.29956332E-001
   5.00000000E+001   7.80736178E-001   6.89408131E-001   7.63542120E-001
   5.50000000E+001   8.05495526E-001   6.94564794E-001   7.91973686E-001
   6.00000000E+001   8.26674137E-001   6.97455690E-001   8.16161222E-001
   6.50000000E+001   8.45116607E-001   6.98995881E-001   8.37000077E-001
   7.00000000E+001   8.61362816E-001   6.99774478E-001   8.55114547E-001
   7.50000000E+001   8.75503326E-001   7.00144542E-001   8.70689778E-001
   8.00000000E+001   8.88072635E-001   7.00304901E-001   8.84350942E-001
   8.50000000E+001   8.99243854E-001   7.00362033E-001   8.96350109E-001
   9.00000000E+001   9.09195789E-001   7.00371034E-001   9.06930305E-001
   9.50000000E+001   9.17945272E-001   7.00359409E-001   9.16158177E-001
   1.00000000E+002   9.25792575E-001   7.00340432E-001   9.24371811E-001
   1.05000000E+002   9.32720780E-001   7.00320229E-001   9.31582275E-001
   1.10000000E+002   9.38964294E-001   7.00301414E-001   9.38044868E-001
   1.15000000E+002   9.44527317E-001   7.00284912E-001   9.43779261E-001
   1.20000000E+002   9.49538982E-001   7.00270874E-001   9.48925946E-001
   1.25000000E+002   9.54057961E-001   7.00259123E-001   9.53552139E-001
   1.30000000E+002   9.58068921E-001   7.00249367E-001   9.57648838E-001
   1.35000000E+002   9.61725270E-001   7.00241295E-001   9.61374247E-001
   1.40000000E+002   9.65024684E-001   7.00234621E-001   9.64729653E-001
   1.45000000E+002   9.67966311E-001   7.00229097E-001   9.67716988E-001
   1.50000000E+002   9.70671297E-001   7.00224514E-001   9.70459499E-001
   1.55000000E+002   9.73097515E-001   7.00220700E-001   9.72916714E-001
   1.60000000E+002   9.75316112E-001   7.00217516E-001   9.75161046E-001
   1.65000000E+002   9.77302899E-001   7.00214847E-001   9.77169324E-001
   1.70000000E+002   9.79141075E-001   7.00212603E-001   9.79025530E-001
   1.75000000E+002   9.80834267E-001   7.00210707E-001   9.80733923E-001
   1.80000000E+002   9.82341190E-001   7.00209101E-001   9.82253720E-001
   1.85000000E+002   9.83730171E-001   7.00207734E-001   9.83653652E-001
   1.90000000E+002   9.85009009E-001   7.00206566E-001   9.84941842E-001
   1.95000000E+002   9.86161857E-001   7.00205565E-001   9.86102709E-001
   2.00000000E+002   9.87219284E-001   7.00204705E-001   9.87167038E-001
   2.05000000E+002   9.88206174E-001   7.00203962E-001   9.88159887E-001
   2.10000000E+002   9.89087738E-001   7.00203319E-001   9.89046616E-001
   2.15000000E+002   9.89921336E-001   7.00202760E-001   9.89884706E-001
   2.20000000E+002   9.90688866E-001   7.00202273E-001   9.90656152E-001
   2.25000000E+002   9.91358118E-001   7.00201848E-001   9.91328831E-001
   2.30000000E+002   9.92039812E-001   7.00201475E-001   9.92013530E-001
   2.35000000E+002   9.92622070E-001   7.00201147E-001   9.92598433E-001
   2.40000000E+002   9.93173010E-001   7.00200859E-001   9.93151705E-001
   2.45000000E+002   9.93683633E-001   7.00200604E-001   9.93664390E-001
