# ./jetvheto -in n3lo-fixed-order/H125-LHC13-R04-mb-0-mt-1725-xmur100-xmuf100-log.fxd -xQ 1.0 -out benchmarks-n3lo-smallR/H125-LHC13-R04-mb-0-mt-1725-xmur100-xmuf100-xQ100-N3LO+NNLLb.R0-1.5.res -scheme b -order 2 -ptmax 500.01 -small-r -fixed_order 3 -loop-mass t -R0 1.5
# process = H    
# collider = pp   
# rts =  13000.000
# M   =    125.000
# muR =    125.000
# muF =    125.000
# Q   =    125.000
# p   =      5.000
# include_c1_squared =   F
# loop_mass  = t   
# alphas(MZ) =    0.11800
# alphas(M) =    0.11264
# alphas(muR) =    0.11264
# Rjet =      0.400
# order = NNLL
# pdf name and set = PDF4LHC15_nnlo_mc.LHgrid,    0
# matching scheme = b
# total cross sections [nb] at LO, NLOdiff, NNLOdiff, N3LOdiff =     0.013801    0.017514    0.010146    0.003834
#----------------------------------------------------------------------
# the lines that follow give the jet-veto efficiencies as a function of pt
#         pt            matched eff      resummed eff     fixed-order eff
   2.00000000E+001   4.76188861E-001   6.12895015E-001   4.21593782E-001
   2.50000000E+001   5.59021495E-001   6.99336175E-001   5.13960990E-001
   3.00000000E+001   6.29311147E-001   7.59653715E-001   5.91015610E-001
   3.50000000E+001   6.84178392E-001   8.01413899E-001   6.50645918E-001
   4.00000000E+001   7.28647341E-001   8.29837246E-001   6.98836983E-001
   4.50000000E+001   7.64594158E-001   8.48530477E-001   7.37928057E-001
   5.00000000E+001   7.95044853E-001   8.60049510E-001   7.71030473E-001
   5.50000000E+001   8.21011871E-001   8.66247803E-001   7.99275639E-001
   6.00000000E+001   8.42733576E-001   8.68483181E-001   8.23059681E-001
   6.50000000E+001   8.62154614E-001   8.67772054E-001   8.44243758E-001
   7.00000000E+001   8.78308075E-001   8.64897438E-001   8.62070819E-001
   7.50000000E+001   8.91531848E-001   8.60470987E-001   8.76925464E-001
   8.00000000E+001   9.03083895E-001   8.54980394E-001   8.89967148E-001
   8.50000000E+001   9.13512439E-001   8.48818034E-001   9.01728487E-001
   9.00000000E+001   9.22268539E-001   8.42301454E-001   9.11747759E-001
   9.50000000E+001   9.30301637E-001   8.35683750E-001   9.20909613E-001
   1.00000000E+002   9.36896144E-001   8.29165056E-001   9.28579537E-001
   1.05000000E+002   9.42800039E-001   8.22898053E-001   9.35454626E-001
   1.10000000E+002   9.48102309E-001   8.16992747E-001   9.41628668E-001
   1.15000000E+002   9.52865876E-001   8.11522539E-001   9.47177133E-001
   1.20000000E+002   9.56977742E-001   8.06528299E-001   9.51996886E-001
   1.25000000E+002   9.60520652E-001   8.02024367E-001   9.56173934E-001
   1.30000000E+002   9.64160774E-001   7.98004373E-001   9.60356305E-001
   1.35000000E+002   9.67331851E-001   7.94446848E-001   9.64008440E-001
   1.40000000E+002   9.69987594E-001   7.91320283E-001   9.67091995E-001
   1.45000000E+002   9.72561961E-001   7.88587388E-001   9.70034899E-001
   1.50000000E+002   9.74730919E-001   7.86208475E-001   9.72527497E-001
   1.55000000E+002   9.77143152E-001   7.84143874E-001   9.75212455E-001
   1.60000000E+002   9.78724494E-001   7.82355606E-001   9.77041107E-001
   1.65000000E+002   9.80472755E-001   7.80808468E-001   9.78998050E-001
   1.70000000E+002   9.82002743E-001   7.79470536E-001   9.80709596E-001
   1.75000000E+002   9.83508032E-001   7.78313358E-001   9.82370623E-001
   1.80000000E+002   9.84897505E-001   7.77311890E-001   9.83895197E-001
   1.85000000E+002   9.86149412E-001   7.76444307E-001   9.85264523E-001
   1.90000000E+002   9.87006054E-001   7.75691721E-001   9.86225466E-001
   1.95000000E+002   9.88149031E-001   7.75037876E-001   9.87456496E-001
   2.00000000E+002   9.89116340E-001   7.74468829E-001   9.88501106E-001
   2.05000000E+002   9.89947326E-001   7.73972653E-001   9.89399966E-001
   2.10000000E+002   9.90692101E-001   7.73539163E-001   9.90204115E-001
   2.15000000E+002   9.91532359E-001   7.73159665E-001   9.91095719E-001
   2.20000000E+002   9.92132600E-001   7.72826740E-001   9.91741805E-001
   2.25000000E+002   9.92773107E-001   7.72534059E-001   9.92422310E-001
   2.30000000E+002   9.93372138E-001   7.72276211E-001   9.93056602E-001
   2.35000000E+002   9.93927863E-001   7.72048572E-001   9.93643503E-001
   2.40000000E+002   9.94298186E-001   7.71847183E-001   9.94041766E-001
   2.45000000E+002   9.94807427E-001   7.71668648E-001   9.94575393E-001
