# ./jetvheto -in n3lo-fixed-order/H125-LHC13-R04-heft-xmur100-xmuf100-log.fxd -xQ 0.75 -out benchmarks-n3lo-smallR/H125-LHC13-R04-heft-xmur100-xmuf100-xQ075-N3LO+NNLLb.res -scheme b -order 2 -ptmax 500.01 -fixed_order 3
# process = H    
# collider = pp   
# rts =  13000.000
# M   =    125.000
# muR =    125.000
# muF =    125.000
# Q   =     93.750
# p   =      5.000
# include_c1_squared =   F
# loop_mass  = none
# alphas(MZ) =    0.11800
# alphas(M) =    0.11264
# alphas(muR) =    0.11264
# Rjet =      0.400
# order = NNLL
# pdf name and set = PDF4LHC15_nnlo_mc.LHgrid,    0
# matching scheme = b
# total cross sections [nb] at LO, NLOdiff, NNLOdiff, N3LOdiff =     0.012945    0.016716    0.010146    0.003834
#----------------------------------------------------------------------
# the lines that follow give the jet-veto efficiencies as a function of pt
#         pt            matched eff      resummed eff     fixed-order eff
   2.00000000E+001   4.40271403E-001   5.38212874E-001   4.08842854E-001
   2.50000000E+001   5.26684719E-001   6.24368510E-001   5.02042917E-001
   3.00000000E+001   6.00208483E-001   6.85635450E-001   5.80189507E-001
   3.50000000E+001   6.57890776E-001   7.28865450E-001   6.40535859E-001
   4.00000000E+001   7.04795609E-001   7.58953812E-001   6.89380469E-001
   4.50000000E+001   7.42875158E-001   7.79394390E-001   7.29072921E-001
   5.00000000E+001   7.75084212E-001   7.92699727E-001   7.62718280E-001
   5.50000000E+001   8.02515884E-001   8.00733426E-001   7.91464926E-001
   6.00000000E+001   8.25489741E-001   8.04910474E-001   8.15679320E-001
   6.50000000E+001   8.45986242E-001   8.06330318E-001   8.37307615E-001
   7.00000000E+001   8.63127533E-001   8.05856174E-001   8.55527758E-001
   7.50000000E+001   8.77225900E-001   8.04163115E-001   8.70653294E-001
   8.00000000E+001   8.89571495E-001   8.01771480E-001   8.83928611E-001
   8.50000000E+001   9.00748315E-001   7.99067465E-001   8.95926690E-001
   9.00000000E+001   9.10270072E-001   7.96322368E-001   9.06183068E-001
   9.50000000E+001   9.19023247E-001   7.93710894E-001   9.15566581E-001
   1.00000000E+002   9.26297497E-001   7.91332260E-001   9.23392937E-001
   1.05000000E+002   9.32854575E-001   7.89230654E-001   9.30416744E-001
   1.10000000E+002   9.38808372E-001   7.87413427E-001   9.36761850E-001
   1.15000000E+002   9.44161772E-001   7.85865763E-001   9.42442779E-001
   1.20000000E+002   9.48835763E-001   7.84561179E-001   9.47391165E-001
   1.25000000E+002   9.52882735E-001   7.83468816E-001   9.51667329E-001
   1.30000000E+002   9.56971302E-001   7.82557724E-001   9.55942935E-001
   1.35000000E+002   9.60587915E-001   7.81799212E-001   9.59715852E-001
   1.40000000E+002   9.63605228E-001   7.81167890E-001   9.62864552E-001
   1.45000000E+002   9.66525299E-001   7.80641959E-001   9.65893331E-001
   1.50000000E+002   9.68994651E-001   7.80203057E-001   9.68454154E-001
   1.55000000E+002   9.71667197E-001   7.79835918E-001   9.71201993E-001
   1.60000000E+002   9.73479553E-001   7.79527952E-001   9.73079465E-001
   1.65000000E+002   9.75441564E-001   7.79268825E-001   9.75095505E-001
   1.70000000E+002   9.77173192E-001   7.79050081E-001   9.76872986E-001
   1.75000000E+002   9.78868006E-001   7.78864804E-001   9.78606495E-001
   1.80000000E+002   9.80430530E-001   7.78707335E-001   9.80201996E-001
   1.85000000E+002   9.81838403E-001   7.78573045E-001   9.81638090E-001
   1.90000000E+002   9.82821789E-001   7.78458130E-001   9.82646032E-001
   1.95000000E+002   9.84107656E-001   7.78359468E-001   9.83952600E-001
   2.00000000E+002   9.85209133E-001   7.78274481E-001   9.85072030E-001
   2.05000000E+002   9.86154622E-001   7.78201040E-001   9.86033119E-001
   2.10000000E+002   9.87013990E-001   7.78137378E-001   9.86906031E-001
   2.15000000E+002   9.87964781E-001   7.78082027E-001   9.87868512E-001
   2.20000000E+002   9.88662141E-001   7.78033759E-001   9.88576191E-001
   2.25000000E+002   9.89400199E-001   7.77991549E-001   9.89323232E-001
   2.30000000E+002   9.90093696E-001   7.77954536E-001   9.90024614E-001
   2.35000000E+002   9.90745508E-001   7.77921992E-001   9.90683369E-001
   2.40000000E+002   9.91201374E-001   7.77893306E-001   9.91145412E-001
   2.45000000E+002   9.91798667E-001   7.77867956E-001   9.91748108E-001
