# ./jetvheto -in n3lo-fixed-order/H125-LHC13-R04-mb-0-mt-1725-xmur200-xmuf100-log.fxd -xQ 0.25 -out benchmarks-n3lo-smallR/H125-LHC13-R04-mb-0-mt-1725-xmur200-xmuf100-xQ025-N3LO+NNLLb.R0-2.0.res -scheme b -order 2 -ptmax 500.01 -small-r -fixed_order 3 -loop-mass t -R0 2.0
# process = H    
# collider = pp   
# rts =  13000.000
# M   =    125.000
# muR =    250.000
# muF =    125.000
# Q   =     31.250
# p   =      5.000
# include_c1_squared =   F
# loop_mass  = t   
# alphas(MZ) =    0.11800
# alphas(M) =    0.11264
# alphas(muR) =    0.10244
# Rjet =      0.400
# order = NNLL
# pdf name and set = PDF4LHC15_nnlo_mc.LHgrid,    0
# matching scheme = b
# total cross sections [nb] at LO, NLOdiff, NNLOdiff, N3LOdiff =     0.011501    0.015066    0.010526    0.005600
#----------------------------------------------------------------------
# the lines that follow give the jet-veto efficiencies as a function of pt
#         pt            matched eff      resummed eff     fixed-order eff
   2.00000000E+001   4.37012801E-001   5.76967179E-001   4.13869553E-001
   2.50000000E+001   5.20268971E-001   6.52080028E-001   5.08802619E-001
   3.00000000E+001   5.91140368E-001   6.96186019E-001   5.85793323E-001
   3.50000000E+001   6.48283241E-001   7.20165325E-001   6.45743736E-001
   4.00000000E+001   6.95441269E-001   7.32754335E-001   6.94202670E-001
   4.50000000E+001   7.34260240E-001   7.39405288E-001   7.33629119E-001
   5.00000000E+001   7.67205811E-001   7.43027476E-001   7.66872624E-001
   5.50000000E+001   7.95308230E-001   7.45079577E-001   7.95126194E-001
   6.00000000E+001   8.19127608E-001   7.46290084E-001   8.19023976E-001
   6.50000000E+001   8.40140712E-001   7.47031713E-001   8.40080780E-001
   7.00000000E+001   8.57954441E-001   7.47501921E-001   8.57918516E-001
   7.50000000E+001   8.73041513E-001   7.47809300E-001   8.73019019E-001
   8.00000000E+001   8.86281947E-001   7.48015771E-001   8.86267566E-001
   8.50000000E+001   8.98109089E-001   7.48157852E-001   8.98099833E-001
   9.00000000E+001   9.08305708E-001   7.48257753E-001   9.08299567E-001
   9.50000000E+001   9.17523095E-001   7.48329364E-001   9.17519023E-001
   1.00000000E+002   9.25399050E-001   7.48381595E-001   9.25396247E-001
   1.05000000E+002   9.32447583E-001   7.48420291E-001   9.32445635E-001
   1.10000000E+002   9.38745990E-001   7.48449370E-001   9.38744628E-001
   1.15000000E+002   9.44424057E-001   7.48471507E-001   9.44423095E-001
   1.20000000E+002   9.49400788E-001   7.48488560E-001   9.49400094E-001
   1.25000000E+002   9.53774997E-001   7.48501839E-001   9.53774485E-001
   1.30000000E+002   9.58014395E-001   7.48512284E-001   9.58014030E-001
   1.35000000E+002   9.61750544E-001   7.48520575E-001   9.61750279E-001
   1.40000000E+002   9.64980756E-001   7.48527214E-001   9.64980558E-001
   1.45000000E+002   9.68023078E-001   7.48532571E-001   9.68022931E-001
   1.50000000E+002   9.70647864E-001   7.48536927E-001   9.70647752E-001
   1.55000000E+002   9.73339706E-001   7.48540493E-001   9.73339626E-001
   1.60000000E+002   9.75363909E-001   7.48543431E-001   9.75363845E-001
   1.65000000E+002   9.77407033E-001   7.48545866E-001   9.77406984E-001
   1.70000000E+002   9.79223758E-001   7.48547897E-001   9.79223721E-001
   1.75000000E+002   9.80943095E-001   7.48549599E-001   9.80943066E-001
   1.80000000E+002   9.82526499E-001   7.48551032E-001   9.82526477E-001
   1.85000000E+002   9.83954159E-001   7.48552246E-001   9.83954143E-001
   1.90000000E+002   9.85062746E-001   7.48553278E-001   9.85062731E-001
   1.95000000E+002   9.86325413E-001   7.48554159E-001   9.86325403E-001
   2.00000000E+002   9.87421040E-001   7.48554914E-001   9.87421032E-001
   2.05000000E+002   9.88390718E-001   7.48555564E-001   9.88390712E-001
   2.10000000E+002   9.89261751E-001   7.48556125E-001   9.89261746E-001
   2.15000000E+002   9.90167052E-001   7.48556612E-001   9.90167048E-001
   2.20000000E+002   9.90883391E-001   7.48557036E-001   9.90883388E-001
   2.25000000E+002   9.91601239E-001   7.48557405E-001   9.91601237E-001
   2.30000000E+002   9.92268975E-001   7.48557728E-001   9.92268973E-001
   2.35000000E+002   9.92889294E-001   7.48558012E-001   9.92889292E-001
   2.40000000E+002   9.93357343E-001   7.48558262E-001   9.93357342E-001
   2.45000000E+002   9.93907886E-001   7.48558482E-001   9.93907885E-001
