# ./jetvheto -in n3lo-fixed-order/H125-LHC13-R04-mb-475-mt-1725-xmur100-xmuf200-log.fxd -xQ 0.0625 -out benchmarks-n3lo-smallR/H125-LHC13-R04-mb-475-mt-1725-xmur100-xmuf200-xQ0625-NNLO+NNLLb.R0-0.5.res -scheme b -order 2 -ptmax 500.01 -fixed_order 2 -small-r -loop-mass t+b -R0 0.5
# process = H    
# collider = pp   
# rts =  13000.000
# M   =    125.000
# muR =    125.000
# muF =    250.000
# Q   =      7.812
# p   =      5.000
# include_c1_squared =   F
# loop_mass  = t+b 
# alphas(MZ) =    0.11800
# alphas(M) =    0.11264
# alphas(muR) =    0.11264
# Rjet =      0.400
# order = NNLL
# pdf name and set = PDF4LHC15_nnlo_mc.LHgrid,    0
# matching scheme = b
# total cross sections [nb] at LO, NLOdiff, NNLOdiff, N3LOdiff =     0.012791    0.017144    0.009991    0.003297
#----------------------------------------------------------------------
# the lines that follow give the jet-veto efficiencies as a function of pt
#         pt            matched eff      resummed eff     fixed-order eff
   2.00000000E+001   3.29690870E-001   2.89575757E-001   3.29106479E-001
   2.50000000E+001   4.39674395E-001   2.90089491E-001   4.39529527E-001
   3.00000000E+001   5.24165766E-001   2.90239929E-001   5.24122484E-001
   3.50000000E+001   5.91315654E-001   2.90294317E-001   5.91301191E-001
   4.00000000E+001   6.45745847E-001   2.90317140E-001   6.45740756E-001
   4.50000000E+001   6.90717827E-001   2.90327838E-001   6.90716080E-001
   5.00000000E+001   7.28256461E-001   2.90333302E-001   7.28255957E-001
   5.50000000E+001   7.59993577E-001   2.90336288E-001   7.59993542E-001
   6.00000000E+001   7.86926993E-001   2.90338014E-001   7.86927122E-001
   6.50000000E+001   8.10143242E-001   2.90339058E-001   8.10143416E-001
   7.00000000E+001   8.30304002E-001   2.90339715E-001   8.30304175E-001
   7.50000000E+001   8.47789190E-001   2.90340142E-001   8.47789344E-001
   8.00000000E+001   8.63170147E-001   2.90340429E-001   8.63170279E-001
   8.50000000E+001   8.76593172E-001   2.90340625E-001   8.76593282E-001
   9.00000000E+001   8.88472203E-001   2.90340763E-001   8.88472295E-001
   9.50000000E+001   8.98951278E-001   2.90340862E-001   8.98951354E-001
   1.00000000E+002   9.08188876E-001   2.90340934E-001   9.08188939E-001
   1.05000000E+002   9.16526069E-001   2.90340987E-001   9.16526121E-001
   1.10000000E+002   9.23945143E-001   2.90341027E-001   9.23945186E-001
   1.15000000E+002   9.30593481E-001   2.90341058E-001   9.30593517E-001
   1.20000000E+002   9.36552175E-001   2.90341081E-001   9.36552205E-001
   1.25000000E+002   9.41889875E-001   2.90341099E-001   9.41889900E-001
   1.30000000E+002   9.46703459E-001   2.90341114E-001   9.46703480E-001
   1.35000000E+002   9.51097614E-001   2.90341125E-001   9.51097632E-001
   1.40000000E+002   9.55052457E-001   2.90341134E-001   9.55052473E-001
   1.45000000E+002   9.58633026E-001   2.90341142E-001   9.58633039E-001
   1.50000000E+002   9.61898295E-001   2.90341148E-001   9.61898307E-001
   1.55000000E+002   9.64856472E-001   2.90341152E-001   9.64856482E-001
   1.60000000E+002   9.67585871E-001   2.90341156E-001   9.67585880E-001
   1.65000000E+002   9.70070344E-001   2.90341160E-001   9.70070351E-001
   1.70000000E+002   9.72330758E-001   2.90341163E-001   9.72330764E-001
   1.75000000E+002   9.74362588E-001   2.90341165E-001   9.74362593E-001
   1.80000000E+002   9.76262079E-001   2.90341167E-001   9.76262084E-001
   1.85000000E+002   9.78008352E-001   2.90341169E-001   9.78008356E-001
   1.90000000E+002   9.79584640E-001   2.90341170E-001   9.79584644E-001
   1.95000000E+002   9.81044616E-001   2.90341171E-001   9.81044620E-001
   2.00000000E+002   9.82374637E-001   2.90341172E-001   9.82374640E-001
   2.05000000E+002   9.83611083E-001   2.90341173E-001   9.83611085E-001
   2.10000000E+002   9.84754810E-001   2.90341174E-001   9.84754813E-001
   2.15000000E+002   9.85809336E-001   2.90341175E-001   9.85809338E-001
   2.20000000E+002   9.86776204E-001   2.90341175E-001   9.86776206E-001
   2.25000000E+002   9.87663702E-001   2.90341176E-001   9.87663703E-001
   2.30000000E+002   9.88499139E-001   2.90341176E-001   9.88499140E-001
   2.35000000E+002   9.89277587E-001   2.90341176E-001   9.89277589E-001
   2.40000000E+002   9.89963742E-001   2.90341177E-001   9.89963744E-001
   2.45000000E+002   9.90625023E-001   2.90341177E-001   9.90625024E-001
