# ./jetvheto -in n3lo-fixed-order/H125-LHC13-R04-mb-475-mt-1725-xmur100-xmuf100-log.fxd -xQ 0.333 -out benchmarks-n3lo-smallR/H125-LHC13-R04-mb-475-mt-1725-xmur100-xmuf100-xQ033-N3LO+NNLLa.R0-2.0.res -scheme a -order 2 -ptmax 500.01 -fixed_order 3 -small-r -loop-mass t+b -R0 2.0
# process = H    
# collider = pp   
# rts =  13000.000
# M   =    125.000
# muR =    125.000
# muF =    125.000
# Q   =     41.625
# p   =      5.000
# include_c1_squared =   F
# loop_mass  = t+b 
# alphas(MZ) =    0.11800
# alphas(M) =    0.11264
# alphas(muR) =    0.11264
# Rjet =      0.400
# order = NNLL
# pdf name and set = PDF4LHC15_nnlo_mc.LHgrid,    0
# matching scheme = a
# total cross sections [nb] at LO, NLOdiff, NNLOdiff, N3LOdiff =     0.012292    0.016994    0.010146    0.003834
#----------------------------------------------------------------------
# the lines that follow give the jet-veto efficiencies as a function of pt
#         pt            matched eff      resummed eff     fixed-order eff
   2.00000000E+001   4.49685595E-001   5.10030192E-001   4.51319368E-001
   2.50000000E+001   5.35357356E-001   5.85536978E-001   5.36825698E-001
   3.00000000E+001   6.07532589E-001   6.36433492E-001   6.08858675E-001
   3.50000000E+001   6.64188399E-001   6.69318371E-001   6.64947540E-001
   4.00000000E+001   7.09975189E-001   6.89682087E-001   7.10355778E-001
   4.50000000E+001   7.47283862E-001   7.01924533E-001   7.47456588E-001
   5.00000000E+001   7.78894034E-001   7.09212334E-001   7.78978104E-001
   5.50000000E+001   8.05883952E-001   7.13584965E-001   8.05930820E-001
   6.00000000E+001   8.28690613E-001   7.16259282E-001   8.28717070E-001
   6.50000000E+001   8.49044982E-001   7.17935599E-001   8.49064316E-001
   7.00000000E+001   8.66254343E-001   7.19014124E-001   8.66268025E-001
   7.50000000E+001   8.80522231E-001   7.19725975E-001   8.80530885E-001
   8.00000000E+001   8.93110611E-001   7.20207223E-001   8.93116387E-001
   8.50000000E+001   9.04457774E-001   7.20539852E-001   9.04462211E-001
   9.00000000E+001   9.14190339E-001   7.20774454E-001   9.14193494E-001
   9.50000000E+001   9.23079954E-001   7.20942990E-001   9.23082480E-001
   1.00000000E+002   9.30509419E-001   7.21066109E-001   9.30511231E-001
   1.05000000E+002   9.37199501E-001   7.21157431E-001   9.37200842E-001
   1.10000000E+002   9.43197425E-001   7.21226117E-001   9.43198469E-001
   1.15000000E+002   9.48586818E-001   7.21278440E-001   9.48587632E-001
   1.20000000E+002   9.53237269E-001   7.21318766E-001   9.53237889E-001
   1.25000000E+002   9.57314821E-001   7.21350181E-001   9.57315271E-001
   1.30000000E+002   9.61366436E-001   7.21374898E-001   9.61366818E-001
   1.35000000E+002   9.64936313E-001   7.21394524E-001   9.64936627E-001
   1.40000000E+002   9.67928948E-001   7.21410240E-001   9.67929190E-001
   1.45000000E+002   9.70799241E-001   7.21422926E-001   9.70799436E-001
   1.50000000E+002   9.73231767E-001   7.21433241E-001   9.73231918E-001
   1.55000000E+002   9.75844901E-001   7.21441686E-001   9.75845039E-001
   1.60000000E+002   9.77615544E-001   7.21448645E-001   9.77615642E-001
   1.65000000E+002   9.79523606E-001   7.21454415E-001   9.79523686E-001
   1.70000000E+002   9.81190730E-001   7.21459225E-001   9.81190793E-001
   1.75000000E+002   9.82813410E-001   7.21463256E-001   9.82813463E-001
   1.80000000E+002   9.84292667E-001   7.21466653E-001   9.84292712E-001
   1.85000000E+002   9.85629553E-001   7.21469528E-001   9.85629591E-001
   1.90000000E+002   9.86566009E-001   7.21471972E-001   9.86566035E-001
   1.95000000E+002   9.87769588E-001   7.21474059E-001   9.87769612E-001
   2.00000000E+002   9.88791258E-001   7.21475849E-001   9.88791277E-001
   2.05000000E+002   9.89667390E-001   7.21477389E-001   9.89667405E-001
   2.10000000E+002   9.90458850E-001   7.21478720E-001   9.90458863E-001
   2.15000000E+002   9.91323294E-001   7.21479873E-001   9.91323305E-001
   2.20000000E+002   9.91955583E-001   7.21480877E-001   9.91955592E-001
   2.25000000E+002   9.92619576E-001   7.21481752E-001   9.92619584E-001
   2.30000000E+002   9.93235925E-001   7.21482518E-001   9.93235932E-001
   2.35000000E+002   9.93804797E-001   7.21483190E-001   9.93804803E-001
   2.40000000E+002   9.94192736E-001   7.21483782E-001   9.94192740E-001
   2.45000000E+002   9.94713607E-001   7.21484304E-001   9.94713610E-001
