# ./jetvheto -in n3lo-fixed-order/H125-LHC13-R04-heft-xmur050-xmuf050-log.fxd -xQ 0.50 -out benchmarks-n3lo-smallR/H125-LHC13-R04-heft-xmur050-xmuf050-xQ050-N3LO+NNLLb.res -scheme b -order 2 -ptmax 500.01 -fixed_order 3
# process = H    
# collider = pp   
# rts =  13000.000
# M   =    125.000
# muR =     62.500
# muF =     62.500
# Q   =     62.500
# p   =      5.000
# include_c1_squared =   F
# loop_mass  = none
# alphas(MZ) =    0.11800
# alphas(M) =    0.11264
# alphas(muR) =    0.12516
# Rjet =      0.400
# order = NNLL
# pdf name and set = PDF4LHC15_nnlo_mc.LHgrid,    0
# matching scheme = b
# total cross sections [nb] at LO, NLOdiff, NNLOdiff, N3LOdiff =     0.015055    0.019611    0.008998    0.001413
#----------------------------------------------------------------------
# the lines that follow give the jet-veto efficiencies as a function of pt
#         pt            matched eff      resummed eff     fixed-order eff
   2.00000000E+001   4.48066385E-001   4.93920394E-001   4.32272620E-001
   2.50000000E+001   5.33940660E-001   5.72857888E-001   5.20076688E-001
   3.00000000E+001   6.06471727E-001   6.28690355E-001   5.95188306E-001
   3.50000000E+001   6.64096720E-001   6.67694808E-001   6.54648121E-001
   4.00000000E+001   7.08897129E-001   6.94447215E-001   7.00880952E-001
   4.50000000E+001   7.47898808E-001   7.12322365E-001   7.41355940E-001
   5.00000000E+001   7.79090793E-001   7.23895588E-001   7.73800605E-001
   5.50000000E+001   8.06234352E-001   7.31149275E-001   8.02051238E-001
   6.00000000E+001   8.28450133E-001   7.35569934E-001   8.25176712E-001
   6.50000000E+001   8.49081946E-001   7.38211621E-001   8.46550538E-001
   7.00000000E+001   8.65069044E-001   7.39777662E-001   8.63110860E-001
   7.50000000E+001   8.79405652E-001   7.40709829E-001   8.77894218E-001
   8.00000000E+001   8.92391430E-001   7.41272742E-001   8.91221610E-001
   8.50000000E+001   9.03946731E-001   7.41620108E-001   9.03036791E-001
   9.00000000E+001   9.14195200E-001   7.41840255E-001   9.13482770E-001
   9.50000000E+001   9.22415530E-001   7.41983828E-001   9.21853677E-001
   1.00000000E+002   9.30214534E-001   7.42080173E-001   9.29768082E-001
   1.05000000E+002   9.36469164E-001   7.42146612E-001   9.36111694E-001
   1.10000000E+002   9.42249173E-001   7.42193596E-001   9.41960757E-001
   1.15000000E+002   9.47690575E-001   7.42227591E-001   9.47456202E-001
   1.20000000E+002   9.52605703E-001   7.42252696E-001   9.52413885E-001
   1.25000000E+002   9.56663279E-001   7.42271575E-001   9.56505189E-001
   1.30000000E+002   9.60213316E-001   7.42286003E-001   9.60082213E-001
   1.35000000E+002   9.63768351E-001   7.42297188E-001   9.63658956E-001
   1.40000000E+002   9.66988548E-001   7.42305969E-001   9.66896738E-001
   1.45000000E+002   9.69750731E-001   7.42312942E-001   9.69673261E-001
   1.50000000E+002   9.71908651E-001   7.42318535E-001   9.71842925E-001
   1.55000000E+002   9.74379072E-001   7.42323064E-001   9.74323047E-001
   1.60000000E+002   9.76616904E-001   7.42326760E-001   9.76568926E-001
   1.65000000E+002   9.77985521E-001   7.42329800E-001   9.77944247E-001
   1.70000000E+002   9.79768332E-001   7.42332319E-001   9.79732679E-001
   1.75000000E+002   9.81438646E-001   7.42334418E-001   9.81407724E-001
   1.80000000E+002   9.82725207E-001   7.42336178E-001   9.82698288E-001
   1.85000000E+002   9.83902456E-001   7.42337661E-001   9.83878937E-001
   1.90000000E+002   9.85117985E-001   7.42338919E-001   9.85097366E-001
   1.95000000E+002   9.86238738E-001   7.42339989E-001   9.86220604E-001
   2.00000000E+002   9.87239231E-001   7.42340905E-001   9.87223233E-001
   2.05000000E+002   9.88050813E-001   7.42341691E-001   9.88036656E-001
   2.10000000E+002   9.88874056E-001   7.42342369E-001   9.88861494E-001
   2.15000000E+002   9.89515455E-001   7.42342955E-001   9.89504277E-001
   2.20000000E+002   9.90418054E-001   7.42343465E-001   9.90408081E-001
   2.25000000E+002   9.90911712E-001   7.42343909E-001   9.90902794E-001
   2.30000000E+002   9.91510215E-001   7.42344297E-001   9.91502219E-001
   2.35000000E+002   9.91968453E-001   7.42344637E-001   9.91961268E-001
   2.40000000E+002   9.92460518E-001   7.42344937E-001   9.92454049E-001
   2.45000000E+002   9.93029993E-001   7.42345201E-001   9.93024154E-001
