# ./jetvheto -in n3lo-fixed-order/H125-LHC13-R04-mb-0-mt-1725-xmur100-xmuf050-log.fxd -xQ 0.5 -out benchmarks-n3lo-smallR/H125-LHC13-R04-mb-0-mt-1725-xmur100-xmuf050-xQ050-N3LO+NNLLb.R0-2.0.res -scheme b -order 2 -ptmax 500.01 -small-r -fixed_order 3 -loop-mass t -R0 2.0
# process = H    
# collider = pp   
# rts =  13000.000
# M   =    125.000
# muR =    125.000
# muF =     62.500
# Q   =     62.500
# p   =      5.000
# include_c1_squared =   F
# loop_mass  = t   
# alphas(MZ) =    0.11800
# alphas(M) =    0.11264
# alphas(muR) =    0.11264
# Rjet =      0.400
# order = NNLL
# pdf name and set = PDF4LHC15_nnlo_mc.LHgrid,    0
# matching scheme = b
# total cross sections [nb] at LO, NLOdiff, NNLOdiff, N3LOdiff =     0.012997    0.017347    0.010424    0.004163
#----------------------------------------------------------------------
# the lines that follow give the jet-veto efficiencies as a function of pt
#         pt            matched eff      resummed eff     fixed-order eff
   2.00000000E+001   4.46774436E-001   5.17515129E-001   4.15356219E-001
   2.50000000E+001   5.31681893E-001   6.00252353E-001   5.08719955E-001
   3.00000000E+001   6.02145386E-001   6.59425579E-001   5.85226468E-001
   3.50000000E+001   6.58939891E-001   7.01257087E-001   6.45994416E-001
   4.00000000E+001   7.04085805E-001   7.30329050E-001   6.93925358E-001
   4.50000000E+001   7.42780636E-001   7.50052984E-001   7.34878042E-001
   5.00000000E+001   7.74614844E-001   7.63058840E-001   7.68458672E-001
   5.50000000E+001   8.01742389E-001   7.71393871E-001   7.96994090E-001
   6.00000000E+001   8.24537229E-001   7.76612720E-001   8.20887675E-001
   6.50000000E+001   8.45182888E-001   7.79833880E-001   8.42394793E-001
   7.00000000E+001   8.61875247E-001   7.81816502E-001   8.59739714E-001
   7.50000000E+001   8.76676701E-001   7.83047158E-001   8.75039666E-001
   8.00000000E+001   8.89960014E-001   7.83824382E-001   8.88699874E-001
   8.50000000E+001   9.01763668E-001   7.84326522E-001   9.00787747E-001
   9.00000000E+001   9.12206341E-001   7.84659400E-001   9.11445028E-001
   9.50000000E+001   9.20881689E-001   7.84885903E-001   9.20282864E-001
   1.00000000E+002   9.28994763E-001   7.85043906E-001   9.28520035E-001
   1.05000000E+002   9.35697560E-001   7.85156688E-001   9.35318080E-001
   1.10000000E+002   9.41802942E-001   7.85238879E-001   9.41497221E-001
   1.15000000E+002   9.47473939E-001   7.85299900E-001   9.47225803E-001
   1.20000000E+002   9.52589147E-001   7.85345956E-001   9.52386268E-001
   1.25000000E+002   9.57004789E-001   7.85381233E-001   9.56837706E-001
   1.30000000E+002   9.60857210E-001   7.85408609E-001   9.60718713E-001
   1.35000000E+002   9.64542597E-001   7.85430105E-001   9.64427093E-001
   1.40000000E+002   9.67907678E-001   7.85447162E-001   9.67810777E-001
   1.45000000E+002   9.70891393E-001   7.85460827E-001   9.70809639E-001
   1.50000000E+002   9.73382776E-001   7.85471871E-001   9.73313419E-001
   1.55000000E+002   9.75954659E-001   7.85480867E-001   9.75895546E-001
   1.60000000E+002   9.78273419E-001   7.85488248E-001   9.78222797E-001
   1.65000000E+002   9.79960272E-001   7.85494346E-001   9.79916714E-001
   1.70000000E+002   9.81836495E-001   7.85499415E-001   9.81798867E-001
   1.75000000E+002   9.83555477E-001   7.85503654E-001   9.83522840E-001
   1.80000000E+002   9.84966559E-001   7.85507217E-001   9.84938142E-001
   1.85000000E+002   9.86268513E-001   7.85510228E-001   9.86243680E-001
   1.90000000E+002   9.87539867E-001   7.85512784E-001   9.87518092E-001
   1.95000000E+002   9.88709802E-001   7.85514963E-001   9.88690647E-001
   2.00000000E+002   9.89759680E-001   7.85516830E-001   9.89742777E-001
   2.05000000E+002   9.90643038E-001   7.85518436E-001   9.90628076E-001
   2.10000000E+002   9.91488566E-001   7.85519821E-001   9.91475286E-001
   2.15000000E+002   9.92205700E-001   7.85521021E-001   9.92193880E-001
   2.20000000E+002   9.93054819E-001   7.85522064E-001   9.93044272E-001
   2.25000000E+002   9.93612227E-001   7.85522974E-001   9.93602792E-001
   2.30000000E+002   9.94226725E-001   7.85523770E-001   9.94218265E-001
   2.35000000E+002   9.94711988E-001   7.85524468E-001   9.94704384E-001
   2.40000000E+002   9.95207412E-001   7.85525082E-001   9.95200562E-001
   2.45000000E+002   9.95730490E-001   7.85525624E-001   9.95724307E-001
