# ./jetvheto -in n3lo-fixed-order/H125-LHC13-R04-mb-475-mt-1725-xmur025-xmuf050-log.fxd -xQ 0.25 -out benchmarks-n3lo-smallR/H125-LHC13-R04-mb-475-mt-1725-xmur025-xmuf050-xQ025-N3LO+NNLLa.res -scheme a -order 2 -ptmax 500.01 -fixed_order 3 -loop-mass t+b
# process = H    
# collider = pp   
# rts =  13000.000
# M   =    125.000
# muR =     31.250
# muF =     62.500
# Q   =     31.250
# p   =      5.000
# include_c1_squared =   F
# loop_mass  = t+b 
# alphas(MZ) =    0.11800
# alphas(M) =    0.11264
# alphas(muR) =    0.14091
# Rjet =      0.400
# order = NNLL
# pdf name and set = PDF4LHC15_nnlo_mc.LHgrid,    0
# matching scheme = a
# total cross sections [nb] at LO, NLOdiff, NNLOdiff, N3LOdiff =     0.017683    0.024805    0.005009   -0.002663
#----------------------------------------------------------------------
# the lines that follow give the jet-veto efficiencies as a function of pt
#         pt            matched eff      resummed eff     fixed-order eff
   2.00000000E+001   4.43902477E-001   4.23588412E-001   4.46607809E-001
   2.50000000E+001   5.29207601E-001   4.82875354E-001   5.29091423E-001
   3.00000000E+001   6.05246272E-001   5.17876122E-001   6.04995778E-001
   3.50000000E+001   6.65460798E-001   5.36977522E-001   6.65141973E-001
   4.00000000E+001   7.10575645E-001   5.47029176E-001   7.10209715E-001
   4.50000000E+001   7.51932621E-001   5.52346647E-001   7.51667982E-001
   5.00000000E+001   7.84062879E-001   5.55244822E-001   7.83854807E-001
   5.50000000E+001   8.12640252E-001   5.56887469E-001   8.12489362E-001
   6.00000000E+001   8.35505622E-001   5.57856696E-001   8.35391522E-001
   6.50000000E+001   8.57721746E-001   5.58450596E-001   8.57640710E-001
   7.00000000E+001   8.73535322E-001   5.58827178E-001   8.73471931E-001
   7.50000000E+001   8.88075776E-001   5.59073369E-001   8.88027309E-001
   8.00000000E+001   9.01494098E-001   5.59238746E-001   9.01457188E-001
   8.50000000E+001   9.13491417E-001   5.59352552E-001   9.13463104E-001
   9.00000000E+001   9.24028450E-001   5.59432573E-001   9.24006495E-001
   9.50000000E+001   9.31909443E-001   5.59489935E-001   9.31891873E-001
   1.00000000E+002   9.39773331E-001   5.59531773E-001   9.39759362E-001
   1.05000000E+002   9.45612790E-001   5.59562770E-001   9.45601410E-001
   1.10000000E+002   9.51066085E-001   5.59586063E-001   9.51056796E-001
   1.15000000E+002   9.56487359E-001   5.59603796E-001   9.56479795E-001
   1.20000000E+002   9.61349731E-001   5.59617456E-001   9.61343529E-001
   1.25000000E+002   9.65109723E-001   5.59628093E-001   9.65104556E-001
   1.30000000E+002   9.68313907E-001   5.59636460E-001   9.68309576E-001
   1.35000000E+002   9.71778856E-001   5.59643101E-001   9.71775236E-001
   1.40000000E+002   9.74935309E-001   5.59648419E-001   9.74932267E-001
   1.45000000E+002   9.77562221E-001   5.59652711E-001   9.77559644E-001
   1.50000000E+002   9.79294705E-001   5.59656200E-001   9.79292492E-001
   1.55000000E+002   9.81792274E-001   5.59659056E-001   9.81790391E-001
   1.60000000E+002   9.84001153E-001   5.59661410E-001   9.83999542E-001
   1.65000000E+002   9.84856869E-001   5.59663361E-001   9.84855464E-001
   1.70000000E+002   9.86529703E-001   5.59664987E-001   9.86528488E-001
   1.75000000E+002   9.88126904E-001   5.59666351E-001   9.88125850E-001
   1.80000000E+002   9.89168226E-001   5.59667499E-001   9.89167305E-001
   1.85000000E+002   9.90121721E-001   5.59668471E-001   9.90120912E-001
   1.90000000E+002   9.91214235E-001   5.59669298E-001   9.91213525E-001
   1.95000000E+002   9.92235284E-001   5.59670003E-001   9.92234660E-001
   2.00000000E+002   9.93106696E-001   5.59670609E-001   9.93106144E-001
   2.05000000E+002   9.93692684E-001   5.59671129E-001   9.93692194E-001
   2.10000000E+002   9.94364243E-001   5.59671579E-001   9.94363808E-001
   2.15000000E+002   9.94771686E-001   5.59671969E-001   9.94771297E-001
   2.20000000E+002   9.95686924E-001   5.59672308E-001   9.95686578E-001
   2.25000000E+002   9.95943112E-001   5.59672604E-001   9.95942802E-001
   2.30000000E+002   9.96379692E-001   5.59672863E-001   9.96379414E-001
   2.35000000E+002   9.96640691E-001   5.59673090E-001   9.96640440E-001
   2.40000000E+002   9.96984248E-001   5.59673290E-001   9.96984021E-001
   2.45000000E+002   9.97486394E-001   5.59673467E-001   9.97486190E-001
