# ./jetvheto -in n3lo-fixed-order/H125-LHC13-R04-mb-0-mt-1725-xmur100-xmuf100-log.fxd -xQ 1.0 -out benchmarks-n3lo-smallR/H125-LHC13-R04-mb-0-mt-1725-xmur100-xmuf100-xQ100-NNLO+NNLLb.R0-0.5.res -scheme b -order 2 -ptmax 500.01 -small-r -fixed_order 2 -loop-mass t -R0 0.5
# process = H    
# collider = pp   
# rts =  13000.000
# M   =    125.000
# muR =    125.000
# muF =    125.000
# Q   =    125.000
# p   =      5.000
# include_c1_squared =   F
# loop_mass  = t   
# alphas(MZ) =    0.11800
# alphas(M) =    0.11264
# alphas(muR) =    0.11264
# Rjet =      0.400
# order = NNLL
# pdf name and set = PDF4LHC15_nnlo_mc.LHgrid,    0
# matching scheme = b
# total cross sections [nb] at LO, NLOdiff, NNLOdiff, N3LOdiff =     0.013801    0.017514    0.010146    0.003834
#----------------------------------------------------------------------
# the lines that follow give the jet-veto efficiencies as a function of pt
#         pt            matched eff      resummed eff     fixed-order eff
   2.00000000E+001   4.50545668E-001   5.84838360E-001   3.54033455E-001
   2.50000000E+001   5.36957240E-001   6.76210602E-001   4.61286580E-001
   3.00000000E+001   6.06254857E-001   7.40692463E-001   5.43462220E-001
   3.50000000E+001   6.62708175E-001   7.85858447E-001   6.08508831E-001
   4.00000000E+001   7.09223456E-001   8.17044495E-001   6.61203589E-001
   4.50000000E+001   7.47640378E-001   8.37979885E-001   7.04404447E-001
   5.00000000E+001   7.79813143E-001   8.51325103E-001   7.40494892E-001
   5.50000000E+001   8.06834831E-001   8.59017359E-001   7.70889733E-001
   6.00000000E+001   8.29826768E-001   8.62480307E-001   7.96874542E-001
   6.50000000E+001   8.49421325E-001   8.62781793E-001   8.19206785E-001
   7.00000000E+001   8.66062941E-001   8.60745086E-001   8.38409214E-001
   7.50000000E+001   8.80483235E-001   8.57013596E-001   8.55230292E-001
   8.00000000E+001   8.92946749E-001   8.52100277E-001   8.69962422E-001
   8.50000000E+001   9.03651956E-001   8.46417814E-001   8.82823656E-001
   9.00000000E+001   9.13010567E-001   8.40300253E-001   8.94209219E-001
   9.50000000E+001   9.21122110E-001   8.34014233E-001   9.04230001E-001
   1.00000000E+002   9.28279379E-001   8.27771093E-001   9.13167919E-001
   1.05000000E+002   9.34596365E-001   8.21732858E-001   9.21134551E-001
   1.10000000E+002   9.40112661E-001   8.16017358E-001   9.28171457E-001
   1.15000000E+002   9.45112216E-001   8.10704563E-001   9.34553636E-001
   1.20000000E+002   9.49550355E-001   8.05840856E-001   9.40244216E-001
   1.25000000E+002   9.53573026E-001   8.01445202E-001   9.45389469E-001
   1.30000000E+002   9.57225593E-001   7.97515092E-001   9.50042546E-001
   1.35000000E+002   9.60525520E-001   7.94032271E-001   9.54228420E-001
   1.40000000E+002   9.63528620E-001   7.90967896E-001   9.58013167E-001
   1.45000000E+002   9.66324090E-001   7.88286877E-001   9.61492620E-001
   1.50000000E+002   9.68827503E-001   7.85951341E-001   9.64595577E-001
   1.55000000E+002   9.71174763E-001   7.83923105E-001   9.67464933E-001
   1.60000000E+002   9.73340458E-001   7.82165411E-001   9.70084916E-001
   1.65000000E+002   9.75315779E-001   7.80644055E-001   9.72455647E-001
   1.70000000E+002   9.77151030E-001   7.79327935E-001   9.74634361E-001
   1.75000000E+002   9.78810093E-001   7.78189266E-001   9.76592344E-001
   1.80000000E+002   9.80366596E-001   7.77203558E-001   9.78408580E-001
   1.85000000E+002   9.81787654E-001   7.76349436E-001   9.80055856E-001
   1.90000000E+002   9.83116618E-001   7.75608386E-001   9.81581823E-001
   1.95000000E+002   9.84355804E-001   7.74964458E-001   9.82992805E-001
   2.00000000E+002   9.85483737E-001   7.74403963E-001   9.84270986E-001
   2.05000000E+002   9.86545949E-001   7.73915185E-001   9.85464627E-001
   2.10000000E+002   9.87509337E-001   7.73488112E-001   9.86543334E-001
   2.15000000E+002   9.88392052E-001   7.73114199E-001   9.87527400E-001
   2.20000000E+002   9.89226436E-001   7.72786148E-001   9.88450903E-001
   2.25000000E+002   9.89992534E-001   7.72497730E-001   9.89295609E-001
   2.30000000E+002   9.90705307E-001   7.72243624E-001   9.90077825E-001
   2.35000000E+002   9.91377700E-001   7.72019277E-001   9.90811652E-001
   2.40000000E+002   9.91981403E-001   7.71820790E-001   9.91469891E-001
   2.45000000E+002   9.92552297E-001   7.71644821E-001   9.92089219E-001
