# ./jetvheto -in n3lo-fixed-order/H125-LHC13-R04-mb-0-mt-1725-xmur100-xmuf050-log.fxd -xQ 0.0625 -out benchmarks-n3lo-smallR/H125-LHC13-R04-mb-0-mt-1725-xmur100-xmuf050-xQ0625-N3LO+NNLLa.res -scheme a -order 2 -ptmax 500.01 -fixed_order 3 -loop-mass t
# process = H    
# collider = pp   
# rts =  13000.000
# M   =    125.000
# muR =    125.000
# muF =     62.500
# Q   =      7.812
# p   =      5.000
# include_c1_squared =   F
# loop_mass  = t   
# alphas(MZ) =    0.11800
# alphas(M) =    0.11264
# alphas(muR) =    0.11264
# Rjet =      0.400
# order = NNLL
# pdf name and set = PDF4LHC15_nnlo_mc.LHgrid,    0
# matching scheme = a
# total cross sections [nb] at LO, NLOdiff, NNLOdiff, N3LOdiff =     0.012997    0.017347    0.010424    0.004163
#----------------------------------------------------------------------
# the lines that follow give the jet-veto efficiencies as a function of pt
#         pt            matched eff      resummed eff     fixed-order eff
   2.00000000E+001   4.69474784E-001   2.76034996E-001   4.69526017E-001
   2.50000000E+001   5.54207848E-001   2.76547706E-001   5.54239195E-001
   3.00000000E+001   6.23638470E-001   2.76697852E-001   6.23657046E-001
   3.50000000E+001   6.78783765E-001   2.76752136E-001   6.78794579E-001
   4.00000000E+001   7.22278124E-001   2.76774915E-001   7.22284509E-001
   4.50000000E+001   7.59438765E-001   2.76785593E-001   7.59442749E-001
   5.00000000E+001   7.89909437E-001   2.76791046E-001   7.89911987E-001
   5.50000000E+001   8.15801780E-001   2.76794026E-001   8.15803473E-001
   6.00000000E+001   8.37482062E-001   2.76795749E-001   8.37483214E-001
   6.50000000E+001   8.56996794E-001   2.76796791E-001   8.56997603E-001
   7.00000000E+001   8.72734866E-001   2.76797447E-001   8.72735442E-001
   7.50000000E+001   8.86617367E-001   2.76797873E-001   8.86617786E-001
   8.00000000E+001   8.99012006E-001   2.76798159E-001   8.99012317E-001
   8.50000000E+001   9.09979961E-001   2.76798355E-001   9.09980195E-001
   9.00000000E+001   9.19649853E-001   2.76798493E-001   9.19650032E-001
   9.50000000E+001   9.27668866E-001   2.76798591E-001   9.27669005E-001
   1.00000000E+002   9.35142857E-001   2.76798663E-001   9.35142966E-001
   1.05000000E+002   9.41311056E-001   2.76798716E-001   9.41311142E-001
   1.10000000E+002   9.46917690E-001   2.76798756E-001   9.46917758E-001
   1.15000000E+002   9.52115508E-001   2.76798787E-001   9.52115563E-001
   1.20000000E+002   9.56797843E-001   2.76798810E-001   9.56797888E-001
   1.25000000E+002   9.60836844E-001   2.76798828E-001   9.60836881E-001
   1.30000000E+002   9.64358265E-001   2.76798843E-001   9.64358296E-001
   1.35000000E+002   9.67723053E-001   2.76798854E-001   9.67723078E-001
   1.40000000E+002   9.70793228E-001   2.76798863E-001   9.70793249E-001
   1.45000000E+002   9.73514236E-001   2.76798871E-001   9.73514254E-001
   1.50000000E+002   9.75786032E-001   2.76798876E-001   9.75786047E-001
   1.55000000E+002   9.78128916E-001   2.76798881E-001   9.78128929E-001
   1.60000000E+002   9.80240539E-001   2.76798885E-001   9.80240550E-001
   1.65000000E+002   9.81777509E-001   2.76798889E-001   9.81777518E-001
   1.70000000E+002   9.83485273E-001   2.76798892E-001   9.83485281E-001
   1.75000000E+002   9.85049514E-001   2.76798894E-001   9.85049521E-001
   1.80000000E+002   9.86333683E-001   2.76798896E-001   9.86333689E-001
   1.85000000E+002   9.87518257E-001   2.76798898E-001   9.87518263E-001
   1.90000000E+002   9.88674591E-001   2.76798899E-001   9.88674596E-001
   1.95000000E+002   9.89738504E-001   2.76798900E-001   9.89738508E-001
   2.00000000E+002   9.90693150E-001   2.76798901E-001   9.90693154E-001
   2.05000000E+002   9.91496422E-001   2.76798902E-001   9.91496426E-001
   2.10000000E+002   9.92265135E-001   2.76798903E-001   9.92265138E-001
   2.15000000E+002   9.92917149E-001   2.76798903E-001   9.92917151E-001
   2.20000000E+002   9.93688749E-001   2.76798904E-001   9.93688751E-001
   2.25000000E+002   9.94195519E-001   2.76798905E-001   9.94195521E-001
   2.30000000E+002   9.94753966E-001   2.76798905E-001   9.94753968E-001
   2.35000000E+002   9.95195044E-001   2.76798905E-001   9.95195046E-001
   2.40000000E+002   9.95645250E-001   2.76798906E-001   9.95645251E-001
   2.45000000E+002   9.96120468E-001   2.76798906E-001   9.96120469E-001
