# ./jetvheto -in n3lo-fixed-order/H125-LHC13-R04-mb-475-mt-1725-xmur050-xmuf050-log.fxd -xQ 1.0 -out benchmarks-n3lo-smallR/H125-LHC13-R04-mb-475-mt-1725-xmur050-xmuf050-xQ100-NNLO+NNLLa.R0-1.5.res -scheme a -order 2 -ptmax 500.01 -fixed_order 2 -small-r -loop-mass t+b -R0 1.5
# process = H    
# collider = pp   
# rts =  13000.000
# M   =    125.000
# muR =     62.500
# muF =     62.500
# Q   =    125.000
# p   =      5.000
# include_c1_squared =   F
# loop_mass  = t+b 
# alphas(MZ) =    0.11800
# alphas(M) =    0.11264
# alphas(muR) =    0.12516
# Rjet =      0.400
# order = NNLL
# pdf name and set = PDF4LHC15_nnlo_mc.LHgrid,    0
# matching scheme = a
# total cross sections [nb] at LO, NLOdiff, NNLOdiff, N3LOdiff =     0.014147    0.020254    0.008998    0.001413
#----------------------------------------------------------------------
# the lines that follow give the jet-veto efficiencies as a function of pt
#         pt            matched eff      resummed eff     fixed-order eff
   2.00000000E+001   5.51993845E-001   6.12566219E-001   4.51585809E-001
   2.50000000E+001   6.35745451E-001   6.83857643E-001   5.37845647E-001
   3.00000000E+001   7.01012753E-001   7.32203992E-001   6.05618957E-001
   3.50000000E+001   7.52481055E-001   7.64546128E-001   6.60103954E-001
   4.00000000E+001   7.93364402E-001   7.85593830E-001   7.04623301E-001
   4.50000000E+001   8.26421073E-001   7.98515392E-001   7.41826274E-001
   5.00000000E+001   8.53158416E-001   8.05516024E-001   7.73153273E-001
   5.50000000E+001   8.74792803E-001   8.08179473E-001   7.99700298E-001
   6.00000000E+001   8.92437003E-001   8.07658030E-001   8.22453602E-001
   6.50000000E+001   9.06842381E-001   8.04815488E-001   8.42063586E-001
   7.00000000E+001   9.18763770E-001   8.00315130E-001   8.59177351E-001
   7.50000000E+001   9.28439061E-001   7.94668299E-001   8.73986041E-001
   8.00000000E+001   9.36495415E-001   7.88278935E-001   8.87031290E-001
   8.50000000E+001   9.43229817E-001   7.81472042E-001   8.98561694E-001
   9.00000000E+001   9.48778999E-001   7.74509515E-001   9.08676257E-001
   9.50000000E+001   9.53389006E-001   7.67599770E-001   9.17587048E-001
   1.00000000E+002   9.57364105E-001   7.60906757E-001   9.25559652E-001
   1.05000000E+002   9.60762013E-001   7.54553332E-001   9.32641906E-001
   1.10000000E+002   9.63701221E-001   7.48625567E-001   9.38939368E-001
   1.15000000E+002   9.66342230E-001   7.43177540E-001   9.44611611E-001
   1.20000000E+002   9.68703085E-001   7.38234466E-001   9.49685968E-001
   1.25000000E+002   9.70904809E-001   7.33798857E-001   9.54296709E-001
   1.30000000E+002   9.72875985E-001   7.29855822E-001   9.58395322E-001
   1.35000000E+002   9.74720479E-001   7.26377896E-001   9.62105002E-001
   1.40000000E+002   9.76469738E-001   7.23329551E-001   9.65482383E-001
   1.45000000E+002   9.78095222E-001   7.20670969E-001   9.68524408E-001
   1.50000000E+002   9.79653238E-001   7.18360998E-001   9.71310382E-001
   1.55000000E+002   9.81111379E-001   7.16359288E-001   9.73831721E-001
   1.60000000E+002   9.82479378E-001   7.14627721E-001   9.76118993E-001
   1.65000000E+002   9.83751641E-001   7.13131210E-001   9.78185892E-001
   1.70000000E+002   9.84949232E-001   7.11838202E-001   9.80070053E-001
   1.75000000E+002   9.86100683E-001   7.10720736E-001   9.81814911E-001
   1.80000000E+002   9.87146724E-001   7.09754267E-001   9.83374805E-001
   1.85000000E+002   9.88151365E-001   7.08917468E-001   9.84824510E-001
   1.90000000E+002   9.89085819E-001   7.08191930E-001   9.86145135E-001
   1.95000000E+002   9.89952321E-001   7.07561840E-001   9.87347351E-001
   2.00000000E+002   9.90756206E-001   7.07013660E-001   9.88443563E-001
   2.05000000E+002   9.91513063E-001   7.06535823E-001   9.89455399E-001
   2.10000000E+002   9.92193388E-001   7.06118464E-001   9.90358717E-001
   2.15000000E+002   9.92856396E-001   7.05753170E-001   9.91216951E-001
   2.20000000E+002   9.93472555E-001   7.05432771E-001   9.92004483E-001
   2.25000000E+002   9.94014163E-001   7.05151149E-001   9.92696938E-001
   2.30000000E+002   9.94558029E-001   7.04903083E-001   9.93373635E-001
   2.35000000E+002   9.95030650E-001   7.04684109E-001   9.93963683E-001
   2.40000000E+002   9.95479866E-001   7.04490408E-001   9.94516819E-001
   2.45000000E+002   9.95886509E-001   7.04318707E-001   9.95015643E-001
