# ./jetvheto -in n3lo-fixed-order/H125-LHC13-R04-mb-0-mt-1725-xmur200-xmuf100-log.fxd -xQ 0.5 -out benchmarks-n3lo-smallR/H125-LHC13-R04-mb-0-mt-1725-xmur200-xmuf100-xQ050-NNLO+NNLLb.R0-2.0.res -scheme b -order 2 -ptmax 500.01 -small-r -fixed_order 2 -loop-mass t -R0 2.0
# process = H    
# collider = pp   
# rts =  13000.000
# M   =    125.000
# muR =    250.000
# muF =    125.000
# Q   =     62.500
# p   =      5.000
# include_c1_squared =   F
# loop_mass  = t   
# alphas(MZ) =    0.11800
# alphas(M) =    0.11264
# alphas(muR) =    0.10244
# Rjet =      0.400
# order = NNLL
# pdf name and set = PDF4LHC15_nnlo_mc.LHgrid,    0
# matching scheme = b
# total cross sections [nb] at LO, NLOdiff, NNLOdiff, N3LOdiff =     0.011501    0.015066    0.010526    0.005600
#----------------------------------------------------------------------
# the lines that follow give the jet-veto efficiencies as a function of pt
#         pt            matched eff      resummed eff     fixed-order eff
   2.00000000E+001   4.36145861E-001   5.41351021E-001   3.67201827E-001
   2.50000000E+001   5.19679755E-001   6.26691773E-001   4.73161072E-001
   3.00000000E+001   5.86897941E-001   6.87581561E-001   5.53722917E-001
   3.50000000E+001   6.41822765E-001   7.30520805E-001   6.17253656E-001
   4.00000000E+001   6.87181567E-001   7.60267324E-001   6.68576569E-001
   4.50000000E+001   7.24835445E-001   7.80381170E-001   7.10591480E-001
   5.00000000E+001   7.56607188E-001   7.93594937E-001   7.45672623E-001
   5.50000000E+001   7.83602819E-001   8.02022482E-001   7.75224424E-001
   6.00000000E+001   8.06863874E-001   8.07265440E-001   8.00466992E-001
   6.50000000E+001   8.27041409E-001   8.10477229E-001   8.22168588E-001
   7.00000000E+001   8.44550393E-001   8.12437382E-001   8.40838970E-001
   7.50000000E+001   8.60052595E-001   8.13643002E-001   8.57218355E-001
   8.00000000E+001   8.73744755E-001   8.14397318E-001   8.71570191E-001
   8.50000000E+001   8.85804459E-001   8.14880266E-001   8.84125319E-001
   9.00000000E+001   8.96535842E-001   8.15197664E-001   8.95229677E-001
   9.50000000E+001   9.06045633E-001   8.15411922E-001   9.05021342E-001
   1.00000000E+002   9.14581376E-001   8.15560337E-001   9.13771358E-001
   1.05000000E+002   9.22223412E-001   8.15665633E-001   9.21577501E-001
   1.10000000E+002   9.29001792E-001   8.15741975E-001   9.28482563E-001
   1.15000000E+002   9.35171805E-001   8.15798409E-001   9.34751096E-001
   1.20000000E+002   9.40697302E-001   8.15840851E-001   9.40353848E-001
   1.25000000E+002   9.45702563E-001   8.15873263E-001   9.45420170E-001
   1.30000000E+002   9.50246529E-001   8.15898355E-001   9.50012754E-001
   1.35000000E+002   9.54334064E-001   8.15918017E-001   9.54139308E-001
   1.40000000E+002   9.58055649E-001   8.15933594E-001   9.57892400E-001
   1.45000000E+002   9.61466932E-001   8.15946056E-001   9.61329318E-001
   1.50000000E+002   9.64528997E-001   8.15956115E-001   9.64412364E-001
   1.55000000E+002   9.67364765E-001   8.15964302E-001   9.67265406E-001
   1.60000000E+002   9.69952923E-001   8.15971014E-001   9.69867876E-001
   1.65000000E+002   9.72302857E-001   8.15976556E-001   9.72229728E-001
   1.70000000E+002   9.74460794E-001   8.15981160E-001   9.74397644E-001
   1.75000000E+002   9.76407196E-001   8.15985007E-001   9.76352441E-001
   1.80000000E+002   9.78212330E-001   8.15988241E-001   9.78164670E-001
   1.85000000E+002   9.79854729E-001   8.15990972E-001   9.79813093E-001
   1.90000000E+002   9.81376256E-001   8.15993290E-001   9.81339755E-001
   1.95000000E+002   9.82780458E-001   8.15995266E-001   9.82748354E-001
   2.00000000E+002   9.84057362E-001   8.15996959E-001   9.84029035E-001
   2.05000000E+002   9.85249150E-001   8.15998413E-001   9.85224081E-001
   2.10000000E+002   9.86328448E-001   8.15999669E-001   9.86306199E-001
   2.15000000E+002   9.87317512E-001   8.16000756E-001   9.87297711E-001
   2.20000000E+002   9.88242283E-001   8.16001701E-001   9.88224615E-001
   2.25000000E+002   9.89090163E-001   8.16002525E-001   9.89074358E-001
   2.30000000E+002   9.89876058E-001   8.16003246E-001   9.89861887E-001
   2.35000000E+002   9.90611067E-001   8.16003878E-001   9.90598331E-001
   2.40000000E+002   9.91274519E-001   8.16004435E-001   9.91263048E-001
   2.45000000E+002   9.91896967E-001   8.16004925E-001   9.91886612E-001
