# ./jetvheto -in n3lo-fixed-order/H125-LHC13-R04-mb-475-mt-1725-xmur200-xmuf200-log.fxd -xQ 0.25 -out benchmarks-n3lo-smallR/H125-LHC13-R04-mb-475-mt-1725-xmur200-xmuf200-xQ025-N3LO+NNLLa.R0-2.0.res -scheme a -order 2 -ptmax 500.01 -fixed_order 3 -small-r -loop-mass t+b -R0 2.0
# process = H    
# collider = pp   
# rts =  13000.000
# M   =    125.000
# muR =    250.000
# muF =    250.000
# Q   =     31.250
# p   =      5.000
# include_c1_squared =   F
# loop_mass  = t+b 
# alphas(MZ) =    0.11800
# alphas(M) =    0.11264
# alphas(muR) =    0.10244
# Rjet =      0.400
# order = NNLL
# pdf name and set = PDF4LHC15_nnlo_mc.LHgrid,    0
# matching scheme = a
# total cross sections [nb] at LO, NLOdiff, NNLOdiff, N3LOdiff =     0.010658    0.014649    0.010464    0.005358
#----------------------------------------------------------------------
# the lines that follow give the jet-veto efficiencies as a function of pt
#         pt            matched eff      resummed eff     fixed-order eff
   2.00000000E+001   4.66594870E-001   5.67789416E-001   4.72417372E-001
   2.50000000E+001   5.53857487E-001   6.38936194E-001   5.58640123E-001
   3.00000000E+001   6.21331601E-001   6.80423020E-001   6.24485219E-001
   3.50000000E+001   6.76162452E-001   7.02867685E-001   6.78169499E-001
   4.00000000E+001   7.20619334E-001   7.14613696E-001   7.21886815E-001
   4.50000000E+001   7.56380579E-001   7.20807597E-001   7.57184541E-001
   5.00000000E+001   7.87657409E-001   7.24177174E-001   7.88190304E-001
   5.50000000E+001   8.13061800E-001   7.26084959E-001   8.13419167E-001
   6.00000000E+001   8.34721220E-001   7.27209925E-001   8.34967174E-001
   6.50000000E+001   8.53137958E-001   7.27898994E-001   8.53310754E-001
   7.00000000E+001   8.69810969E-001   7.28335817E-001   8.69935842E-001
   7.50000000E+001   8.83623088E-001   7.28621347E-001   8.83714379E-001
   8.00000000E+001   8.95656308E-001   7.28813130E-001   8.95724159E-001
   8.50000000E+001   9.06367569E-001   7.28945098E-001   9.06418883E-001
   9.00000000E+001   9.15527706E-001   7.29037886E-001   9.15566959E-001
   9.50000000E+001   9.24084941E-001   7.29104397E-001   9.24115484E-001
   1.00000000E+002   9.31315922E-001   7.29152906E-001   9.31339889E-001
   1.05000000E+002   9.37690551E-001   7.29188846E-001   9.37709541E-001
   1.10000000E+002   9.43218429E-001   7.29215853E-001   9.43233610E-001
   1.15000000E+002   9.48456591E-001   7.29236413E-001   9.48468868E-001
   1.20000000E+002   9.53201801E-001   7.29252250E-001   9.53211816E-001
   1.25000000E+002   9.57155829E-001   7.29264583E-001   9.57164043E-001
   1.30000000E+002   9.60917416E-001   7.29274283E-001   9.60924212E-001
   1.35000000E+002   9.64147775E-001   7.29281984E-001   9.64153428E-001
   1.40000000E+002   9.67375218E-001   7.29288149E-001   9.67379962E-001
   1.45000000E+002   9.69954124E-001   7.29293125E-001   9.69958117E-001
   1.50000000E+002   9.72483410E-001   7.29297170E-001   9.72486795E-001
   1.55000000E+002   9.74736954E-001   7.29300482E-001   9.74739837E-001
   1.60000000E+002   9.76713629E-001   7.29303211E-001   9.76716094E-001
   1.65000000E+002   9.78436023E-001   7.29305473E-001   9.78438140E-001
   1.70000000E+002   9.80252764E-001   7.29307358E-001   9.80254593E-001
   1.75000000E+002   9.81737325E-001   7.29308939E-001   9.81738911E-001
   1.80000000E+002   9.83340299E-001   7.29310270E-001   9.83341681E-001
   1.85000000E+002   9.84502291E-001   7.29311397E-001   9.84503497E-001
   1.90000000E+002   9.85677523E-001   7.29312355E-001   9.85678580E-001
   1.95000000E+002   9.86726423E-001   7.29313174E-001   9.86727353E-001
   2.00000000E+002   9.87866359E-001   7.29313875E-001   9.87867180E-001
   2.05000000E+002   9.88666184E-001   7.29314479E-001   9.88666910E-001
   2.10000000E+002   9.89427789E-001   7.29315000E-001   9.89428433E-001
   2.15000000E+002   9.90241835E-001   7.29315453E-001   9.90242408E-001
   2.20000000E+002   9.90995292E-001   7.29315846E-001   9.90995804E-001
   2.25000000E+002   9.91586515E-001   7.29316189E-001   9.91586972E-001
   2.30000000E+002   9.92154540E-001   7.29316489E-001   9.92154949E-001
   2.35000000E+002   9.92740909E-001   7.29316752E-001   9.92741278E-001
   2.40000000E+002   9.93250927E-001   7.29316984E-001   9.93251258E-001
   2.45000000E+002   9.93744280E-001   7.29317189E-001   9.93744580E-001
