# ./jetvheto -in n3lo-fixed-order/H125-LHC13-R04-heft-xmur100-xmuf100-log.fxd -xQ 0.25 -out benchmarks-n3lo-smallR/H125-LHC13-R04-heft-xmur100-xmuf100-xQ025-NNLO+NNLLb.R0-0.5.res -scheme b -order 2 -ptmax 500.01 -fixed_order 2 -small-r -R0 0.5
# process = H    
# collider = pp   
# rts =  13000.000
# M   =    125.000
# muR =    125.000
# muF =    125.000
# Q   =     31.250
# p   =      5.000
# include_c1_squared =   F
# loop_mass  = none
# alphas(MZ) =    0.11800
# alphas(M) =    0.11264
# alphas(muR) =    0.11264
# Rjet =      0.400
# order = NNLL
# pdf name and set = PDF4LHC15_nnlo_mc.LHgrid,    0
# matching scheme = b
# total cross sections [nb] at LO, NLOdiff, NNLOdiff, N3LOdiff =     0.012945    0.016716    0.010146    0.003834
#----------------------------------------------------------------------
# the lines that follow give the jet-veto efficiencies as a function of pt
#         pt            matched eff      resummed eff     fixed-order eff
   2.00000000E+001   3.87582315E-001   5.35342202E-001   3.33152974E-001
   2.50000000E+001   4.70104233E-001   6.07742247E-001   4.42354030E-001
   3.00000000E+001   5.40065841E-001   6.50324888E-001   5.26280770E-001
   3.50000000E+001   5.99424857E-001   6.73496215E-001   5.92590428E-001
   4.00000000E+001   6.49880594E-001   6.85666863E-001   6.46413459E-001
   4.50000000E+001   6.92480031E-001   6.92098475E-001   6.90650611E-001
   5.00000000E+001   7.28645001E-001   6.95601716E-001   7.27636368E-001
   5.50000000E+001   7.59405094E-001   6.97586590E-001   7.58824117E-001
   6.00000000E+001   7.85857180E-001   6.98757497E-001   7.85509225E-001
   6.50000000E+001   8.08717740E-001   6.99474885E-001   8.08501674E-001
   7.00000000E+001   8.28447015E-001   6.99929733E-001   8.28308351E-001
   7.50000000E+001   8.45694258E-001   7.00227074E-001   8.45602652E-001
   8.00000000E+001   8.60804708E-001   7.00426804E-001   8.60742611E-001
   8.50000000E+001   8.74026047E-001   7.00564247E-001   8.73982907E-001
   9.00000000E+001   8.85793461E-001   7.00660887E-001   8.85762882E-001
   9.50000000E+001   8.96151161E-001   7.00730160E-001   8.96129047E-001
   1.00000000E+002   9.05363901E-001   7.00780686E-001   9.05347624E-001
   1.05000000E+002   9.13586894E-001   7.00818119E-001   9.13574722E-001
   1.10000000E+002   9.20898573E-001   7.00846250E-001   9.20889329E-001
   1.15000000E+002   9.27502892E-001   7.00867664E-001   9.27495781E-001
   1.20000000E+002   9.33413104E-001   7.00884160E-001   9.33407561E-001
   1.25000000E+002   9.38744200E-001   7.00897006E-001   9.38739831E-001
   1.30000000E+002   9.43547769E-001   7.00907110E-001   9.43544289E-001
   1.35000000E+002   9.47924825E-001   7.00915131E-001   9.47922026E-001
   1.40000000E+002   9.51835580E-001   7.00921553E-001   9.51833307E-001
   1.45000000E+002   9.55459793E-001   7.00926736E-001   9.55457933E-001
   1.50000000E+002   9.58688030E-001   7.00930949E-001   9.58686494E-001
   1.55000000E+002   9.61651801E-001   7.00934399E-001   9.61650523E-001
   1.60000000E+002   9.64381227E-001   7.00937241E-001   9.64380158E-001
   1.65000000E+002   9.66854180E-001   7.00939597E-001   9.66853279E-001
   1.70000000E+002   9.69147299E-001   7.00941561E-001   9.69146535E-001
   1.75000000E+002   9.71219008E-001   7.00943208E-001   9.71218357E-001
   1.80000000E+002   9.73146606E-001   7.00944594E-001   9.73146048E-001
   1.85000000E+002   9.74898914E-001   7.00945768E-001   9.74898433E-001
   1.90000000E+002   9.76519403E-001   7.00946766E-001   9.76518987E-001
   1.95000000E+002   9.78041743E-001   7.00947619E-001   9.78041382E-001
   2.00000000E+002   9.79433319E-001   7.00948349E-001   9.79433004E-001
   2.05000000E+002   9.80726876E-001   7.00948978E-001   9.80726600E-001
   2.10000000E+002   9.81913147E-001   7.00949521E-001   9.81912904E-001
   2.15000000E+002   9.82997462E-001   7.00949992E-001   9.82997248E-001
   2.20000000E+002   9.84019075E-001   7.00950402E-001   9.84018885E-001
   2.25000000E+002   9.84962214E-001   7.00950759E-001   9.84962045E-001
   2.30000000E+002   9.85842701E-001   7.00951072E-001   9.85842551E-001
   2.35000000E+002   9.86681138E-001   7.00951346E-001   9.86681004E-001
   2.40000000E+002   9.87439461E-001   7.00951588E-001   9.87439341E-001
   2.45000000E+002   9.88156250E-001   7.00951801E-001   9.88156143E-001
