# ./jetvheto -in n3lo-fixed-order/H125-LHC13-R04-heft-xmur100-xmuf100-log.fxd -xQ 0.50 -out benchmarks-n3lo-smallR/H125-LHC13-R04-heft-xmur100-xmuf100-xQ050-NNLO+NNLLa.R0-1.5.res -scheme a -order 2 -ptmax 500.01 -fixed_order 2 -small-r -R0 1.5
# process = H    
# collider = pp   
# rts =  13000.000
# M   =    125.000
# muR =    125.000
# muF =    125.000
# Q   =     62.500
# p   =      5.000
# include_c1_squared =   F
# loop_mass  = none
# alphas(MZ) =    0.11800
# alphas(M) =    0.11264
# alphas(muR) =    0.11264
# Rjet =      0.400
# order = NNLL
# pdf name and set = PDF4LHC15_nnlo_mc.LHgrid,    0
# matching scheme = a
# total cross sections [nb] at LO, NLOdiff, NNLOdiff, N3LOdiff =     0.012945    0.016716    0.010146    0.003834
#----------------------------------------------------------------------
# the lines that follow give the jet-veto efficiencies as a function of pt
#         pt            matched eff      resummed eff     fixed-order eff
   2.00000000E+001   4.91338452E-001   5.22284782E-001   5.03121755E-001
   2.50000000E+001   5.78522283E-001   6.02860633E-001   5.84489186E-001
   3.00000000E+001   6.46355526E-001   6.59858308E-001   6.47024325E-001
   3.50000000E+001   6.99548405E-001   6.99687277E-001   6.96432698E-001
   4.00000000E+001   7.41850434E-001   7.26995174E-001   7.36537087E-001
   4.50000000E+001   7.75716076E-001   7.45234755E-001   7.69498888E-001
   5.00000000E+001   8.03264664E-001   7.57038366E-001   7.97057559E-001
   5.50000000E+001   8.25946778E-001   7.64427011E-001   8.20296043E-001
   6.00000000E+001   8.45023468E-001   7.68918214E-001   8.40179538E-001
   6.50000000E+001   8.61304924E-001   7.71592872E-001   8.57311575E-001
   7.00000000E+001   8.75281778E-001   7.73171696E-001   8.72069843E-001
   7.50000000E+001   8.87503896E-001   7.74106723E-001   8.84956099E-001
   8.00000000E+001   8.98245197E-001   7.74668190E-001   8.96237121E-001
   8.50000000E+001   9.07683605E-001   7.75012634E-001   9.06102675E-001
   9.00000000E+001   9.16127628E-001   7.75229576E-001   9.14880120E-001
   9.50000000E+001   9.23592917E-001   7.75370170E-001   9.22604114E-001
   1.00000000E+002   9.30261333E-001   7.75463948E-001   9.29473021E-001
   1.05000000E+002   9.36235729E-001   7.75528253E-001   9.35603161E-001
   1.10000000E+002   9.41564452E-001   7.75573498E-001   9.41053390E-001
   1.15000000E+002   9.46391710E-001   7.75606087E-001   9.45975962E-001
   1.20000000E+002   9.50721439E-001   7.75630058E-001   9.50380922E-001
   1.25000000E+002   9.54634809E-001   7.75648024E-001   9.54354081E-001
   1.30000000E+002   9.58166867E-001   7.75661715E-001   9.57933958E-001
   1.35000000E+002   9.61390291E-001   7.75672302E-001   9.61195880E-001
   1.40000000E+002   9.64273453E-001   7.75680597E-001   9.64110237E-001
   1.45000000E+002   9.66948783E-001   7.75687172E-001   9.66811003E-001
   1.50000000E+002   9.69333569E-001   7.75692438E-001   9.69216654E-001
   1.55000000E+002   9.71524899E-001   7.75696697E-001   9.71425199E-001
   1.60000000E+002   9.73544512E-001   7.75700169E-001   9.73459094E-001
   1.65000000E+002   9.75375364E-001   7.75703023E-001   9.75301855E-001
   1.70000000E+002   9.77074123E-001   7.75705385E-001   9.77010596E-001
   1.75000000E+002   9.78609463E-001   7.75707352E-001   9.78554343E-001
   1.80000000E+002   9.80038704E-001   7.75709001E-001   9.79990696E-001
   1.85000000E+002   9.81338390E-001   7.75710390E-001   9.81296426E-001
   1.90000000E+002   9.82540734E-001   7.75711567E-001   9.82503927E-001
   1.95000000E+002   9.83670677E-001   7.75712569E-001   9.83638287E-001
   2.00000000E+002   9.84703799E-001   7.75713425E-001   9.84675207E-001
   2.05000000E+002   9.85664400E-001   7.75714160E-001   9.85639085E-001
   2.10000000E+002   9.86545496E-001   7.75714794E-001   9.86523019E-001
   2.15000000E+002   9.87350992E-001   7.75715343E-001   9.87330981E-001
   2.20000000E+002   9.88110081E-001   7.75715819E-001   9.88092219E-001
   2.25000000E+002   9.88810966E-001   7.75716234E-001   9.88794983E-001
   2.30000000E+002   9.89465397E-001   7.75716596E-001   9.89451061E-001
   2.35000000E+002   9.90088695E-001   7.75716914E-001   9.90075806E-001
   2.40000000E+002   9.90652467E-001   7.75717194E-001   9.90640855E-001
   2.45000000E+002   9.91185439E-001   7.75717440E-001   9.91174955E-001
