# ./jetvheto -in n3lo-fixed-order/H125-LHC13-R04-mb-475-mt-1725-xmur100-xmuf050-log.fxd -xQ 0.25 -out benchmarks-n3lo-smallR/H125-LHC13-R04-mb-475-mt-1725-xmur100-xmuf050-xQ025-NNLO+NNLLb.R0-0.5.res -scheme b -order 2 -ptmax 500.01 -fixed_order 2 -small-r -loop-mass t+b -R0 0.5
# process = H    
# collider = pp   
# rts =  13000.000
# M   =    125.000
# muR =    125.000
# muF =     62.500
# Q   =     31.250
# p   =      5.000
# include_c1_squared =   F
# loop_mass  = t+b 
# alphas(MZ) =    0.11800
# alphas(M) =    0.11264
# alphas(muR) =    0.11264
# Rjet =      0.400
# order = NNLL
# pdf name and set = PDF4LHC15_nnlo_mc.LHgrid,    0
# matching scheme = b
# total cross sections [nb] at LO, NLOdiff, NNLOdiff, N3LOdiff =     0.011575    0.016866    0.010424    0.004163
#----------------------------------------------------------------------
# the lines that follow give the jet-veto efficiencies as a function of pt
#         pt            matched eff      resummed eff     fixed-order eff
   2.00000000E+001   3.58342630E-001   5.09052462E-001   3.01797175E-001
   2.50000000E+001   4.41146702E-001   5.80798953E-001   4.12444386E-001
   3.00000000E+001   5.12545629E-001   6.23306424E-001   4.98409551E-001
   3.50000000E+001   5.74089554E-001   6.46559273E-001   5.67166648E-001
   4.00000000E+001   6.26629104E-001   6.58813025E-001   6.23168191E-001
   4.50000000E+001   6.71726066E-001   6.65300734E-001   6.69933084E-001
   5.00000000E+001   7.10245682E-001   6.68838344E-001   7.09277749E-001
   5.50000000E+001   7.43176979E-001   6.70843937E-001   7.42632321E-001
   6.00000000E+001   7.71576900E-001   6.72027498E-001   7.71258431E-001
   6.50000000E+001   7.96139872E-001   6.72752799E-001   7.95947126E-001
   7.00000000E+001   8.17631683E-001   6.73212727E-001   8.17511462E-001
   7.50000000E+001   8.36304413E-001   6.73513416E-001   8.36227208E-001
   8.00000000E+001   8.52784648E-001   6.73715407E-001   8.52733853E-001
   8.50000000E+001   8.67389497E-001   6.73854411E-001   8.67355329E-001
   9.00000000E+001   8.80211631E-001   6.73952152E-001   8.80188173E-001
   9.50000000E+001   8.91559504E-001   6.74022216E-001   8.91543074E-001
   1.00000000E+002   9.01723563E-001   6.74073318E-001   9.01711868E-001
   1.05000000E+002   9.10796822E-001   6.74111180E-001   9.10788355E-001
   1.10000000E+002   9.18865077E-001   6.74139632E-001   9.18858861E-001
   1.15000000E+002   9.26159498E-001   6.74161292E-001   9.26154870E-001
   1.20000000E+002   9.32694901E-001   6.74177977E-001   9.32691413E-001
   1.25000000E+002   9.38646505E-001   6.74190970E-001   9.38643846E-001
   1.30000000E+002   9.43961568E-001   6.74201189E-001   9.43959515E-001
   1.35000000E+002   9.48770926E-001   6.74209302E-001   9.48769326E-001
   1.40000000E+002   9.53164951E-001   6.74215798E-001   9.53163692E-001
   1.45000000E+002   9.57138704E-001   6.74221040E-001   9.57137703E-001
   1.50000000E+002   9.60778832E-001   6.74225302E-001   9.60778030E-001
   1.55000000E+002   9.64085173E-001   6.74228791E-001   9.64084524E-001
   1.60000000E+002   9.67091266E-001   6.74231665E-001   9.67090738E-001
   1.65000000E+002   9.69818703E-001   6.74234049E-001   9.69818268E-001
   1.70000000E+002   9.72303465E-001   6.74236035E-001   9.72303105E-001
   1.75000000E+002   9.74607238E-001   6.74237700E-001   9.74606939E-001
   1.80000000E+002   9.76680850E-001   6.74239103E-001   9.76680599E-001
   1.85000000E+002   9.78610748E-001   6.74240291E-001   9.78610537E-001
   1.90000000E+002   9.80369120E-001   6.74241300E-001   9.80368941E-001
   1.95000000E+002   9.81978391E-001   6.74242162E-001   9.81978238E-001
   2.00000000E+002   9.83449283E-001   6.74242901E-001   9.83449152E-001
   2.05000000E+002   9.84806646E-001   6.74243537E-001   9.84806533E-001
   2.10000000E+002   9.86027592E-001   6.74244087E-001   9.86027493E-001
   2.15000000E+002   9.87184473E-001   6.74244563E-001   9.87184387E-001
   2.20000000E+002   9.88248545E-001   6.74244977E-001   9.88248471E-001
   2.25000000E+002   9.89196022E-001   6.74245339E-001   9.89195956E-001
   2.30000000E+002   9.90107398E-001   6.74245655E-001   9.90107340E-001
   2.35000000E+002   9.90914336E-001   6.74245933E-001   9.90914285E-001
   2.40000000E+002   9.91671073E-001   6.74246177E-001   9.91671028E-001
   2.45000000E+002   9.92353650E-001   6.74246393E-001   9.92353610E-001
