# ./jetvheto -in n3lo-fixed-order/H125-LHC13-R04-mb-475-mt-1725-xmur100-xmuf050-log.fxd -xQ 0.0625 -out benchmarks-n3lo-smallR/H125-LHC13-R04-mb-475-mt-1725-xmur100-xmuf050-xQ0625-NNLO+NNLLb.R0-2.0.res -scheme b -order 2 -ptmax 500.01 -fixed_order 2 -small-r -loop-mass t+b -R0 2.0
# process = H    
# collider = pp   
# rts =  13000.000
# M   =    125.000
# muR =    125.000
# muF =     62.500
# Q   =      7.812
# p   =      5.000
# include_c1_squared =   F
# loop_mass  = t+b 
# alphas(MZ) =    0.11800
# alphas(M) =    0.11264
# alphas(muR) =    0.11264
# Rjet =      0.400
# order = NNLL
# pdf name and set = PDF4LHC15_nnlo_mc.LHgrid,    0
# matching scheme = b
# total cross sections [nb] at LO, NLOdiff, NNLOdiff, N3LOdiff =     0.011575    0.016866    0.010424    0.004163
#----------------------------------------------------------------------
# the lines that follow give the jet-veto efficiencies as a function of pt
#         pt            matched eff      resummed eff     fixed-order eff
   2.00000000E+001   3.02416750E-001   2.67117695E-001   3.01797175E-001
   2.50000000E+001   4.12599520E-001   2.67610374E-001   4.12444386E-001
   3.00000000E+001   4.98456255E-001   2.67754653E-001   4.98409551E-001
   3.50000000E+001   5.67182363E-001   2.67806816E-001   5.67166648E-001
   4.00000000E+001   6.23173765E-001   2.67828705E-001   6.23168191E-001
   4.50000000E+001   6.69935022E-001   2.67838966E-001   6.69933084E-001
   5.00000000E+001   7.09278318E-001   2.67844205E-001   7.09277749E-001
   5.50000000E+001   7.42632371E-001   2.67847070E-001   7.42632321E-001
   6.00000000E+001   7.71258296E-001   2.67848725E-001   7.71258431E-001
   6.50000000E+001   7.95946939E-001   2.67849726E-001   7.95947126E-001
   7.00000000E+001   8.17511275E-001   2.67850356E-001   8.17511462E-001
   7.50000000E+001   8.36227040E-001   2.67850766E-001   8.36227208E-001
   8.00000000E+001   8.52733709E-001   2.67851041E-001   8.52733853E-001
   8.50000000E+001   8.67355208E-001   2.67851229E-001   8.67355329E-001
   9.00000000E+001   8.80188072E-001   2.67851361E-001   8.80188173E-001
   9.50000000E+001   8.91542990E-001   2.67851456E-001   8.91543074E-001
   1.00000000E+002   9.01711799E-001   2.67851525E-001   9.01711868E-001
   1.05000000E+002   9.10788298E-001   2.67851576E-001   9.10788355E-001
   1.10000000E+002   9.18858813E-001   2.67851615E-001   9.18858861E-001
   1.15000000E+002   9.26154831E-001   2.67851644E-001   9.26154870E-001
   1.20000000E+002   9.32691380E-001   2.67851666E-001   9.32691413E-001
   1.25000000E+002   9.38643818E-001   2.67851684E-001   9.38643846E-001
   1.30000000E+002   9.43959492E-001   2.67851698E-001   9.43959515E-001
   1.35000000E+002   9.48769306E-001   2.67851709E-001   9.48769326E-001
   1.40000000E+002   9.53163675E-001   2.67851717E-001   9.53163692E-001
   1.45000000E+002   9.57137689E-001   2.67851724E-001   9.57137703E-001
   1.50000000E+002   9.60778018E-001   2.67851730E-001   9.60778030E-001
   1.55000000E+002   9.64084513E-001   2.67851735E-001   9.64084524E-001
   1.60000000E+002   9.67090728E-001   2.67851739E-001   9.67090738E-001
   1.65000000E+002   9.69818260E-001   2.67851742E-001   9.69818268E-001
   1.70000000E+002   9.72303098E-001   2.67851745E-001   9.72303105E-001
   1.75000000E+002   9.74606933E-001   2.67851747E-001   9.74606939E-001
   1.80000000E+002   9.76680594E-001   2.67851749E-001   9.76680599E-001
   1.85000000E+002   9.78610532E-001   2.67851750E-001   9.78610537E-001
   1.90000000E+002   9.80368937E-001   2.67851752E-001   9.80368941E-001
   1.95000000E+002   9.81978235E-001   2.67851753E-001   9.81978238E-001
   2.00000000E+002   9.83449148E-001   2.67851754E-001   9.83449152E-001
   2.05000000E+002   9.84806530E-001   2.67851755E-001   9.84806533E-001
   2.10000000E+002   9.86027491E-001   2.67851755E-001   9.86027493E-001
   2.15000000E+002   9.87184385E-001   2.67851756E-001   9.87184387E-001
   2.20000000E+002   9.88248469E-001   2.67851757E-001   9.88248471E-001
   2.25000000E+002   9.89195955E-001   2.67851757E-001   9.89195956E-001
   2.30000000E+002   9.90107339E-001   2.67851758E-001   9.90107340E-001
   2.35000000E+002   9.90914283E-001   2.67851758E-001   9.90914285E-001
   2.40000000E+002   9.91671027E-001   2.67851758E-001   9.91671028E-001
   2.45000000E+002   9.92353608E-001   2.67851759E-001   9.92353610E-001
