# ./jetvheto -in n3lo-fixed-order/H125-LHC13-R04-mb-475-mt-1725-xmur100-xmuf200-log.fxd -xQ 0.0625 -out benchmarks-n3lo-smallR/H125-LHC13-R04-mb-475-mt-1725-xmur100-xmuf200-xQ0625-N3LO+NNLLb.R0-1.5.res -scheme b -order 2 -ptmax 500.01 -fixed_order 3 -small-r -loop-mass t+b -R0 1.5
# process = H    
# collider = pp   
# rts =  13000.000
# M   =    125.000
# muR =    125.000
# muF =    250.000
# Q   =      7.812
# p   =      5.000
# include_c1_squared =   F
# loop_mass  = t+b 
# alphas(MZ) =    0.11800
# alphas(M) =    0.11264
# alphas(muR) =    0.11264
# Rjet =      0.400
# order = NNLL
# pdf name and set = PDF4LHC15_nnlo_mc.LHgrid,    0
# matching scheme = b
# total cross sections [nb] at LO, NLOdiff, NNLOdiff, N3LOdiff =     0.012791    0.017144    0.009991    0.003297
#----------------------------------------------------------------------
# the lines that follow give the jet-veto efficiencies as a function of pt
#         pt            matched eff      resummed eff     fixed-order eff
   2.00000000E+001   3.98597885E-001   2.89578126E-001   3.98403480E-001
   2.50000000E+001   4.96313854E-001   2.90090270E-001   4.96267892E-001
   3.00000000E+001   5.71044728E-001   2.90240242E-001   5.71031797E-001
   3.50000000E+001   6.32756164E-001   2.90294462E-001   6.32752564E-001
   4.00000000E+001   6.83142289E-001   2.90317214E-001   6.83141463E-001
   4.50000000E+001   7.23442421E-001   2.90327880E-001   7.23442380E-001
   5.00000000E+001   7.59617403E-001   2.90333326E-001   7.59617644E-001
   5.50000000E+001   7.88581019E-001   2.90336303E-001   7.88581283E-001
   6.00000000E+001   8.13374997E-001   2.90338024E-001   8.13375233E-001
   6.50000000E+001   8.34358047E-001   2.90339065E-001   8.34358241E-001
   7.00000000E+001   8.53732619E-001   2.90339720E-001   8.53732779E-001
   7.50000000E+001   8.69466544E-001   2.90340146E-001   8.69466670E-001
   8.00000000E+001   8.83123268E-001   2.90340431E-001   8.83123366E-001
   8.50000000E+001   8.95386785E-001   2.90340627E-001   8.95386863E-001
   9.00000000E+001   9.05719848E-001   2.90340764E-001   9.05719910E-001
   9.50000000E+001   9.15620834E-001   2.90340863E-001   9.15620884E-001
   1.00000000E+002   9.23826312E-001   2.90340934E-001   9.23826352E-001
   1.05000000E+002   9.30983942E-001   2.90340988E-001   9.30983974E-001
   1.10000000E+002   9.37113664E-001   2.90341028E-001   9.37113690E-001
   1.15000000E+002   9.43073368E-001   2.90341058E-001   9.43073389E-001
   1.20000000E+002   9.48499845E-001   2.90341081E-001   9.48499863E-001
   1.25000000E+002   9.52865574E-001   2.90341099E-001   9.52865589E-001
   1.30000000E+002   9.57125871E-001   2.90341114E-001   9.57125883E-001
   1.35000000E+002   9.60680950E-001   2.90341125E-001   9.60680960E-001
   1.40000000E+002   9.64406438E-001   2.90341134E-001   9.64406447E-001
   1.45000000E+002   9.67211032E-001   2.90341142E-001   9.67211040E-001
   1.50000000E+002   9.70061014E-001   2.90341148E-001   9.70061020E-001
   1.55000000E+002   9.72578442E-001   2.90341152E-001   9.72578448E-001
   1.60000000E+002   9.74734405E-001   2.90341157E-001   9.74734409E-001
   1.65000000E+002   9.76567655E-001   2.90341160E-001   9.76567658E-001
   1.70000000E+002   9.78648378E-001   2.90341163E-001   9.78648382E-001
   1.75000000E+002   9.80271592E-001   2.90341165E-001   9.80271594E-001
   1.80000000E+002   9.82145150E-001   2.90341167E-001   9.82145152E-001
   1.85000000E+002   9.83352347E-001   2.90341169E-001   9.83352349E-001
   1.90000000E+002   9.84650803E-001   2.90341170E-001   9.84650805E-001
   1.95000000E+002   9.85787529E-001   2.90341171E-001   9.85787530E-001
   2.00000000E+002   9.87128302E-001   2.90341172E-001   9.87128304E-001
   2.05000000E+002   9.87944431E-001   2.90341173E-001   9.87944432E-001
   2.10000000E+002   9.88735769E-001   2.90341174E-001   9.88735771E-001
   2.15000000E+002   9.89650899E-001   2.90341175E-001   9.89650901E-001
   2.20000000E+002   9.90500921E-001   2.90341175E-001   9.90500922E-001
   2.25000000E+002   9.91115164E-001   2.90341176E-001   9.91115165E-001
   2.30000000E+002   9.91712747E-001   2.90341176E-001   9.91712748E-001
   2.35000000E+002   9.92363880E-001   2.90341177E-001   9.92363881E-001
   2.40000000E+002   9.92925851E-001   2.90341177E-001   9.92925851E-001
   2.45000000E+002   9.93471538E-001   2.90341177E-001   9.93471538E-001
