# ./jetvheto -in n3lo-fixed-order/H125-LHC13-R04-heft-xmur050-xmuf050-log.fxd -xQ 0.25 -out benchmarks-n3lo-smallR/H125-LHC13-R04-heft-xmur050-xmuf050-xQ025-N3LO+NNLLa.R0-2.0.res -scheme a -order 2 -ptmax 500.01 -fixed_order 3 -small-r -R0 2.0
# process = H    
# collider = pp   
# rts =  13000.000
# M   =    125.000
# muR =     62.500
# muF =     62.500
# Q   =     31.250
# p   =      5.000
# include_c1_squared =   F
# loop_mass  = none
# alphas(MZ) =    0.11800
# alphas(M) =    0.11264
# alphas(muR) =    0.12516
# Rjet =      0.400
# order = NNLL
# pdf name and set = PDF4LHC15_nnlo_mc.LHgrid,    0
# matching scheme = a
# total cross sections [nb] at LO, NLOdiff, NNLOdiff, N3LOdiff =     0.015055    0.019611    0.008998    0.001413
#----------------------------------------------------------------------
# the lines that follow give the jet-veto efficiencies as a function of pt
#         pt            matched eff      resummed eff     fixed-order eff
   2.00000000E+001   4.51474485E-001   4.94605348E-001   4.50065620E-001
   2.50000000E+001   5.36103636E-001   5.62556567E-001   5.35117843E-001
   3.00000000E+001   6.08212915E-001   6.02806172E-001   6.07875407E-001
   3.50000000E+001   6.65622097E-001   6.24825180E-001   6.65471707E-001
   4.00000000E+001   7.10378090E-001   6.36429788E-001   7.10255567E-001
   4.50000000E+001   7.49527850E-001   6.42574216E-001   7.49462038E-001
   5.00000000E+001   7.80937764E-001   6.45924781E-001   7.80889863E-001
   5.50000000E+001   8.08286093E-001   6.47824378E-001   8.08255100E-001
   6.00000000E+001   8.30679061E-001   6.48945404E-001   8.30655804E-001
   6.50000000E+001   8.51374411E-001   6.49632389E-001   8.51359759E-001
   7.00000000E+001   8.67413285E-001   6.50068023E-001   8.67401068E-001
   7.50000000E+001   8.81730571E-001   6.50352830E-001   8.81721105E-001
   8.00000000E+001   8.94637936E-001   6.50544152E-001   8.94630807E-001
   8.50000000E+001   9.06081088E-001   6.50675815E-001   9.06075690E-001
   9.00000000E+001   9.16198425E-001   6.50768393E-001   9.16194285E-001
   9.50000000E+001   9.24306284E-001   6.50834757E-001   9.24302841E-001
   1.00000000E+002   9.31971959E-001   6.50883161E-001   9.31969203E-001
   1.05000000E+002   9.38116338E-001   6.50919023E-001   9.38114001E-001
   1.10000000E+002   9.43781705E-001   6.50945972E-001   9.43779750E-001
   1.15000000E+002   9.49104571E-001   6.50966488E-001   9.49102964E-001
   1.20000000E+002   9.53906598E-001   6.50982292E-001   9.53905269E-001
   1.25000000E+002   9.57869482E-001   6.50994599E-001   9.57868349E-001
   1.30000000E+002   9.61334238E-001   6.51004279E-001   9.61333266E-001
   1.35000000E+002   9.64798730E-001   6.51011963E-001   9.64797911E-001
   1.40000000E+002   9.67934912E-001   6.51018116E-001   9.67934219E-001
   1.45000000E+002   9.70624317E-001   6.51023081E-001   9.70623723E-001
   1.50000000E+002   9.72725910E-001   6.51027118E-001   9.72725389E-001
   1.55000000E+002   9.75128227E-001   6.51030422E-001   9.75127782E-001
   1.60000000E+002   9.77303656E-001   6.51033145E-001   9.77303274E-001
   1.65000000E+002   9.78635833E-001   6.51035403E-001   9.78635491E-001
   1.70000000E+002   9.80368170E-001   6.51037285E-001   9.80367872E-001
   1.75000000E+002   9.81990679E-001   6.51038862E-001   9.81990419E-001
   1.80000000E+002   9.83240766E-001   6.51040190E-001   9.83240537E-001
   1.85000000E+002   9.84384387E-001   6.51041315E-001   9.84384183E-001
   1.90000000E+002   9.85564606E-001   6.51042271E-001   9.85564426E-001
   1.95000000E+002   9.86652620E-001   6.51043088E-001   9.86652461E-001
   2.00000000E+002   9.87623808E-001   6.51043788E-001   9.87623667E-001
   2.05000000E+002   9.88411722E-001   6.51044390E-001   9.88411596E-001
   2.10000000E+002   9.89210696E-001   6.51044911E-001   9.89210583E-001
   2.15000000E+002   9.89833322E-001   6.51045362E-001   9.89833220E-001
   2.20000000E+002   9.90708790E-001   6.51045754E-001   9.90708699E-001
   2.25000000E+002   9.91187989E-001   6.51046097E-001   9.91187907E-001
   2.30000000E+002   9.91768620E-001   6.51046396E-001   9.91768546E-001
   2.35000000E+002   9.92213275E-001   6.51046659E-001   9.92213208E-001
   2.40000000E+002   9.92690605E-001   6.51046891E-001   9.92690544E-001
   2.45000000E+002   9.93242837E-001   6.51047095E-001   9.93242783E-001
