# ./jetvheto -in n3lo-fixed-order/H125-LHC13-R04-mb-475-mt-1725-xmur050-xmuf050-log.fxd -xQ 1.0 -out benchmarks-n3lo-smallR/H125-LHC13-R04-mb-475-mt-1725-xmur050-xmuf050-xQ100-N3LO+NNLLa.R0-0.5.res -scheme a -order 2 -ptmax 500.01 -fixed_order 3 -small-r -loop-mass t+b -R0 0.5
# process = H    
# collider = pp   
# rts =  13000.000
# M   =    125.000
# muR =     62.500
# muF =     62.500
# Q   =    125.000
# p   =      5.000
# include_c1_squared =   F
# loop_mass  = t+b 
# alphas(MZ) =    0.11800
# alphas(M) =    0.11264
# alphas(muR) =    0.12516
# Rjet =      0.400
# order = NNLL
# pdf name and set = PDF4LHC15_nnlo_mc.LHgrid,    0
# matching scheme = a
# total cross sections [nb] at LO, NLOdiff, NNLOdiff, N3LOdiff =     0.014147    0.020254    0.008998    0.001413
#----------------------------------------------------------------------
# the lines that follow give the jet-veto efficiencies as a function of pt
#         pt            matched eff      resummed eff     fixed-order eff
   2.00000000E+001   4.71608236E-001   5.66967137E-001   4.41074844E-001
   2.50000000E+001   5.58424223E-001   6.47653774E-001   5.26291803E-001
   3.00000000E+001   6.31589792E-001   7.03334216E-001   5.99588615E-001
   3.50000000E+001   6.89515518E-001   7.41377472E-001   6.58104134E-001
   4.00000000E+001   7.33911999E-001   7.66881632E-001   7.03699261E-001
   4.50000000E+001   7.72668776E-001   7.83317307E-001   7.43908515E-001
   5.00000000E+001   8.03224623E-001   7.93113936E-001   7.76267730E-001
   5.50000000E+001   8.29551576E-001   7.98020251E-001   8.04438345E-001
   6.00000000E+001   8.50790256E-001   7.99310821E-001   8.27667847E-001
   6.50000000E+001   8.70395466E-001   7.97940886E-001   8.49073502E-001
   7.00000000E+001   8.85104138E-001   7.94642957E-001   8.65767048E-001
   7.50000000E+001   8.98169613E-001   7.89981534E-001   8.80674091E-001
   8.00000000E+001   9.09932516E-001   7.84401861E-001   8.94138038E-001
   8.50000000E+001   9.20307001E-001   7.78261441E-001   9.06106835E-001
   9.00000000E+001   9.29319465E-001   7.71848065E-001   9.16611008E-001
   9.50000000E+001   9.36331860E-001   7.65391023E-001   9.25078477E-001
   1.00000000E+002   9.43062675E-001   7.59071250E-001   9.33101787E-001
   1.05000000E+002   9.48323909E-001   7.53025545E-001   9.39585604E-001
   1.10000000E+002   9.53147079E-001   7.47351478E-001   9.45495190E-001
   1.15000000E+002   9.57791623E-001   7.42112646E-001   9.51094105E-001
   1.20000000E+002   9.61956938E-001   7.37342152E-001   9.56107678E-001
   1.25000000E+002   9.65381284E-001   7.33049037E-001   9.60296277E-001
   1.30000000E+002   9.68351005E-001   7.29223803E-001   9.63938023E-001
   1.35000000E+002   9.71385355E-001   7.25843428E-001   9.67546891E-001
   1.40000000E+002   9.74168593E-001   7.22876030E-001   9.70830250E-001
   1.45000000E+002   9.76566038E-001   7.20284783E-001   9.73664645E-001
   1.50000000E+002   9.78404213E-001   7.18030974E-001   9.75887820E-001
   1.55000000E+002   9.80606330E-001   7.16076246E-001   9.78411529E-001
   1.60000000E+002   9.82584522E-001   7.14384106E-001   9.80668095E-001
   1.65000000E+002   9.83741445E-001   7.12920789E-001   9.82074144E-001
   1.70000000E+002   9.85309856E-001   7.11655823E-001   9.83850040E-001
   1.75000000E+002   9.86801699E-001   7.10562125E-001   9.85520635E-001
   1.80000000E+002   9.87921803E-001   7.09615871E-001   9.86797346E-001
   1.85000000E+002   9.88964625E-001   7.08796323E-001   9.87975392E-001
   1.90000000E+002   9.90045591E-001   7.08085557E-001   9.89172337E-001
   1.95000000E+002   9.91047503E-001   7.07468157E-001   9.90274812E-001
   2.00000000E+002   9.91931440E-001   7.06930913E-001   9.91246363E-001
   2.05000000E+002   9.92630611E-001   7.06462531E-001   9.92022417E-001
   2.10000000E+002   9.93336960E-001   7.06053372E-001   9.92795408E-001
   2.15000000E+002   9.93885721E-001   7.05695211E-001   9.93402921E-001
   2.20000000E+002   9.94691790E-001   7.05381033E-001   9.94259310E-001
   2.25000000E+002   9.95093534E-001   7.05104853E-001   9.94706379E-001
   2.30000000E+002   9.95597003E-001   7.04861560E-001   9.95249343E-001
   2.35000000E+002   9.95966642E-001   7.04646784E-001   9.95654001E-001
   2.40000000E+002   9.96369836E-001   7.04456784E-001   9.96087982E-001
   2.45000000E+002   9.96840530E-001   7.04288355E-001   9.96585702E-001
