# ./jetvheto -in n3lo-fixed-order/H125-LHC13-R04-mb-475-mt-1725-xmur050-xmuf025-log.fxd -xQ 0.0625 -out benchmarks-n3lo-smallR/H125-LHC13-R04-mb-475-mt-1725-xmur050-xmuf025-xQ0625-N3LO+NNLLb.R0-1.0.res -scheme b -order 2 -ptmax 500.01 -fixed_order 3 -small-r -loop-mass t+b -R0 1.0
# process = H    
# collider = pp   
# rts =  13000.000
# M   =    125.000
# muR =     62.500
# muF =     31.250
# Q   =      7.812
# p   =      5.000
# include_c1_squared =   F
# loop_mass  = t+b 
# alphas(MZ) =    0.11800
# alphas(M) =    0.11264
# alphas(muR) =    0.12516
# Rjet =      0.400
# order = NNLL
# pdf name and set = PDF4LHC15_nnlo_mc.LHgrid,    0
# matching scheme = b
# total cross sections [nb] at LO, NLOdiff, NNLOdiff, N3LOdiff =     0.012926    0.020318    0.009723    0.001827
#----------------------------------------------------------------------
# the lines that follow give the jet-veto efficiencies as a function of pt
#         pt            matched eff      resummed eff     fixed-order eff
   2.00000000E+001   4.16031475E-001   1.67917275E-001   4.15980545E-001
   2.50000000E+001   5.07805187E-001   1.68275162E-001   5.07800100E-001
   3.00000000E+001   5.80654524E-001   1.68379984E-001   5.80656478E-001
   3.50000000E+001   6.39754241E-001   1.68417884E-001   6.39756651E-001
   4.00000000E+001   6.88973419E-001   1.68433787E-001   6.88975344E-001
   4.50000000E+001   7.30605114E-001   1.68441243E-001   7.30606525E-001
   5.00000000E+001   7.65402410E-001   1.68445050E-001   7.65403404E-001
   5.50000000E+001   7.95769224E-001   1.68447131E-001   7.95769940E-001
   6.00000000E+001   8.20951664E-001   1.68448333E-001   8.20952172E-001
   6.50000000E+001   8.41282257E-001   1.68449061E-001   8.41282612E-001
   7.00000000E+001   8.60356344E-001   1.68449519E-001   8.60356605E-001
   7.50000000E+001   8.76584047E-001   1.68449817E-001   8.76584241E-001
   8.00000000E+001   8.90175571E-001   1.68450016E-001   8.90175714E-001
   8.50000000E+001   9.02715522E-001   1.68450153E-001   9.02715631E-001
   9.00000000E+001   9.13663299E-001   1.68450249E-001   9.13663383E-001
   9.50000000E+001   9.21894519E-001   1.68450318E-001   9.21894582E-001
   1.00000000E+002   9.30777812E-001   1.68450368E-001   9.30777862E-001
   1.05000000E+002   9.37704477E-001   1.68450405E-001   9.37704516E-001
   1.10000000E+002   9.44694560E-001   1.68450433E-001   9.44694592E-001
   1.15000000E+002   9.50720323E-001   1.68450454E-001   9.50720349E-001
   1.20000000E+002   9.55558211E-001   1.68450471E-001   9.55558232E-001
   1.25000000E+002   9.59755452E-001   1.68450484E-001   9.59755469E-001
   1.30000000E+002   9.64020333E-001   1.68450494E-001   9.64020346E-001
   1.35000000E+002   9.67557807E-001   1.68450501E-001   9.67557819E-001
   1.40000000E+002   9.70865749E-001   1.68450508E-001   9.70865759E-001
   1.45000000E+002   9.73929035E-001   1.68450513E-001   9.73929043E-001
   1.50000000E+002   9.76551876E-001   1.68450517E-001   9.76551883E-001
   1.55000000E+002   9.78956870E-001   1.68450521E-001   9.78956876E-001
   1.60000000E+002   9.81459794E-001   1.68450523E-001   9.81459799E-001
   1.65000000E+002   9.83315723E-001   1.68450526E-001   9.83315727E-001
   1.70000000E+002   9.84871436E-001   1.68450528E-001   9.84871440E-001
   1.75000000E+002   9.86706819E-001   1.68450529E-001   9.86706822E-001
   1.80000000E+002   9.87960671E-001   1.68450531E-001   9.87960674E-001
   1.85000000E+002   9.89386394E-001   1.68450532E-001   9.89386397E-001
   1.90000000E+002   9.90522175E-001   1.68450533E-001   9.90522177E-001
   1.95000000E+002   9.91725207E-001   1.68450534E-001   9.91725209E-001
   2.00000000E+002   9.92593310E-001   1.68450534E-001   9.92593312E-001
   2.05000000E+002   9.93441262E-001   1.68450535E-001   9.93441263E-001
   2.10000000E+002   9.94207081E-001   1.68450536E-001   9.94207082E-001
   2.15000000E+002   9.95058384E-001   1.68450536E-001   9.95058385E-001
   2.20000000E+002   9.95659168E-001   1.68450536E-001   9.95659169E-001
   2.25000000E+002   9.96348615E-001   1.68450537E-001   9.96348616E-001
   2.30000000E+002   9.96847319E-001   1.68450537E-001   9.96847320E-001
   2.35000000E+002   9.97218751E-001   1.68450537E-001   9.97218752E-001
   2.40000000E+002   9.97738070E-001   1.68450538E-001   9.97738071E-001
   2.45000000E+002   9.98160716E-001   1.68450538E-001   9.98160716E-001
