# ./jetvheto -in n3lo-fixed-order/H125-LHC13-R04-mb-475-mt-1725-xmur050-xmuf100-log.fxd -xQ 0.25 -out benchmarks-n3lo-smallR/H125-LHC13-R04-mb-475-mt-1725-xmur050-xmuf100-xQ025-N3LO+NNLLa.R0-2.0.res -scheme a -order 2 -ptmax 500.01 -fixed_order 3 -small-r -loop-mass t+b -R0 2.0
# process = H    
# collider = pp   
# rts =  13000.000
# M   =    125.000
# muR =     62.500
# muF =    125.000
# Q   =     31.250
# p   =      5.000
# include_c1_squared =   F
# loop_mass  = t+b 
# alphas(MZ) =    0.11800
# alphas(M) =    0.11264
# alphas(muR) =    0.12516
# Rjet =      0.400
# order = NNLL
# pdf name and set = PDF4LHC15_nnlo_mc.LHgrid,    0
# matching scheme = a
# total cross sections [nb] at LO, NLOdiff, NNLOdiff, N3LOdiff =     0.015023    0.020252    0.008553    0.000949
#----------------------------------------------------------------------
# the lines that follow give the jet-veto efficiencies as a function of pt
#         pt            matched eff      resummed eff     fixed-order eff
   2.00000000E+001   4.37367447E-001   4.83877187E-001   4.34275701E-001
   2.50000000E+001   5.22527683E-001   5.47967950E-001   5.20687147E-001
   3.00000000E+001   5.97696941E-001   5.85684226E-001   5.97055125E-001
   3.50000000E+001   6.55989104E-001   6.06219494E-001   6.55665178E-001
   4.00000000E+001   7.03190340E-001   6.17010086E-001   7.03001592E-001
   4.50000000E+001   7.41527183E-001   6.22713875E-001   7.41403361E-001
   5.00000000E+001   7.74353538E-001   6.25821143E-001   7.74275319E-001
   5.50000000E+001   8.02638256E-001   6.27581818E-001   8.02589654E-001
   6.00000000E+001   8.26342806E-001   6.28620521E-001   8.26309804E-001
   6.50000000E+001   8.47934607E-001   6.29256930E-001   8.47913789E-001
   7.00000000E+001   8.65976350E-001   6.29660441E-001   8.65962067E-001
   7.50000000E+001   8.80520291E-001   6.29924227E-001   8.80509228E-001
   8.00000000E+001   8.93371818E-001   6.30101418E-001   8.93363259E-001
   8.50000000E+001   9.05186666E-001   6.30223352E-001   9.05180306E-001
   9.00000000E+001   9.15089580E-001   6.30309088E-001   9.15084552E-001
   9.50000000E+001   9.24344650E-001   6.30370545E-001   9.24340806E-001
   1.00000000E+002   9.31799322E-001   6.30415370E-001   9.31796185E-001
   1.05000000E+002   9.38536831E-001   6.30448580E-001   9.38534274E-001
   1.10000000E+002   9.44641668E-001   6.30473536E-001   9.44639596E-001
   1.15000000E+002   9.50098679E-001   6.30492534E-001   9.50096981E-001
   1.20000000E+002   9.54736501E-001   6.30507169E-001   9.54735085E-001
   1.25000000E+002   9.58691239E-001   6.30518566E-001   9.58690034E-001
   1.30000000E+002   9.62882643E-001   6.30527530E-001   9.62881653E-001
   1.35000000E+002   9.66508758E-001   6.30534645E-001   9.66507929E-001
   1.40000000E+002   9.69425911E-001   6.30540343E-001   9.69425203E-001
   1.45000000E+002   9.72288491E-001   6.30544941E-001   9.72287888E-001
   1.50000000E+002   9.74638895E-001   6.30548679E-001   9.74638375E-001
   1.55000000E+002   9.77408564E-001   6.30551739E-001   9.77408127E-001
   1.60000000E+002   9.78941833E-001   6.30554261E-001   9.78941444E-001
   1.65000000E+002   9.80821074E-001   6.30556351E-001   9.80820738E-001
   1.70000000E+002   9.82408033E-001   6.30558094E-001   9.82407738E-001
   1.75000000E+002   9.84035330E-001   6.30559554E-001   9.84035074E-001
   1.80000000E+002   9.85508973E-001   6.30560784E-001   9.85508749E-001
   1.85000000E+002   9.86833732E-001   6.30561826E-001   9.86833536E-001
   1.90000000E+002   9.87571422E-001   6.30562711E-001   9.87571245E-001
   1.95000000E+002   9.88799040E-001   6.30563467E-001   9.88798885E-001
   2.00000000E+002   9.89800807E-001   6.30564116E-001   9.89800670E-001
   2.05000000E+002   9.90611443E-001   6.30564674E-001   9.90611320E-001
   2.10000000E+002   9.91339145E-001   6.30565156E-001   9.91339035E-001
   2.15000000E+002   9.92243314E-001   6.30565573E-001   9.92243217E-001
   2.20000000E+002   9.92795443E-001   6.30565937E-001   9.92795355E-001
   2.25000000E+002   9.93441303E-001   6.30566254E-001   9.93441224E-001
   2.30000000E+002   9.94043635E-001   6.30566531E-001   9.94043564E-001
   2.35000000E+002   9.94593746E-001   6.30566775E-001   9.94593682E-001
   2.40000000E+002   9.94887825E-001   6.30566989E-001   9.94887766E-001
   2.45000000E+002   9.95416701E-001   6.30567178E-001   9.95416648E-001
