# ./jetvheto -in n3lo-fixed-order/H125-LHC13-R04-heft-xmur100-xmuf100-log.fxd -xQ 1.00 -out benchmarks-n3lo-smallR/H125-LHC13-R04-heft-xmur100-xmuf100-xQ100-N3LO+NNLLa.R0-2.0.res -scheme a -order 2 -ptmax 500.01 -fixed_order 3 -small-r -R0 2.0
# process = H    
# collider = pp   
# rts =  13000.000
# M   =    125.000
# muR =    125.000
# muF =    125.000
# Q   =    125.000
# p   =      5.000
# include_c1_squared =   F
# loop_mass  = none
# alphas(MZ) =    0.11800
# alphas(M) =    0.11264
# alphas(muR) =    0.11264
# Rjet =      0.400
# order = NNLL
# pdf name and set = PDF4LHC15_nnlo_mc.LHgrid,    0
# matching scheme = a
# total cross sections [nb] at LO, NLOdiff, NNLOdiff, N3LOdiff =     0.012945    0.016716    0.010146    0.003834
#----------------------------------------------------------------------
# the lines that follow give the jet-veto efficiencies as a function of pt
#         pt            matched eff      resummed eff     fixed-order eff
   2.00000000E+001   5.06703959E-001   6.21374704E-001   4.60774143E-001
   2.50000000E+001   5.90341622E-001   7.03655345E-001   5.45786875E-001
   3.00000000E+001   6.60432596E-001   7.60719619E-001   6.17068533E-001
   3.50000000E+001   7.14350107E-001   7.99963428E-001   6.72113648E-001
   4.00000000E+001   7.57498748E-001   8.26441078E-001   7.16667414E-001
   4.50000000E+001   7.91932511E-001   8.43626239E-001   7.52873009E-001
   5.00000000E+001   8.20658267E-001   8.53973631E-001   7.83562730E-001
   5.50000000E+001   8.44788313E-001   8.59260546E-001   8.09784074E-001
   6.00000000E+001   8.64635521E-001   8.60787416E-001   8.31871310E-001
   6.50000000E+001   8.82158271E-001   8.59527038E-001   8.51599627E-001
   7.00000000E+001   8.96477627E-001   8.56228836E-001   8.68219188E-001
   7.50000000E+001   9.07894426E-001   8.51478290E-001   8.82015993E-001
   8.00000000E+001   9.17687268E-001   8.45742410E-001   8.94125116E-001
   8.50000000E+001   9.26431350E-001   8.39397046E-001   9.05069202E-001
   9.00000000E+001   9.33648830E-001   8.32746415E-001   9.14424589E-001
   9.50000000E+001   9.40218110E-001   8.26032821E-001   9.22983790E-001
   1.00000000E+002   9.45455186E-001   8.19447624E-001   9.30122626E-001
   1.05000000E+002   9.50110898E-001   8.13136400E-001   9.36529413E-001
   1.10000000E+002   9.54302657E-001   8.07203452E-001   9.42317122E-001
   1.15000000E+002   9.58036879E-001   8.01717649E-001   9.47498999E-001
   1.20000000E+002   9.61243808E-001   7.96716330E-001   9.52012685E-001
   1.25000000E+002   9.63974713E-001   7.92211137E-001   9.55913202E-001
   1.30000000E+002   9.66857031E-001   7.88193681E-001   9.59813209E-001
   1.35000000E+002   9.69399305E-001   7.84641022E-001   9.63254687E-001
   1.40000000E+002   9.71478107E-001   7.81520608E-001   9.66126784E-001
   1.45000000E+002   9.73553932E-001   7.78794433E-001   9.68889494E-001
   1.50000000E+002   9.75290111E-001   7.76422332E-001   9.71225357E-001
   1.55000000E+002   9.77284608E-001   7.74364335E-001   9.73731807E-001
   1.60000000E+002   9.78543608E-001   7.72582286E-001   9.75444349E-001
   1.65000000E+002   9.79995583E-001   7.71040888E-001   9.77283286E-001
   1.70000000E+002   9.81281502E-001   7.69708184E-001   9.78904621E-001
   1.75000000E+002   9.82574059E-001   7.68555717E-001   9.80485847E-001
   1.80000000E+002   9.83779411E-001   7.67558467E-001   9.81941189E-001
   1.85000000E+002   9.84872522E-001   7.66694641E-001   9.83251126E-001
   1.90000000E+002   9.85601568E-001   7.65945391E-001   9.84170523E-001
   1.95000000E+002   9.86630494E-001   7.65294501E-001   9.85362313E-001
   2.00000000E+002   9.87509249E-001   7.64728067E-001   9.86383405E-001
   2.05000000E+002   9.88261378E-001   7.64234203E-001   9.87260065E-001
   2.10000000E+002   9.88948762E-001   7.63802755E-001   9.88056295E-001
   2.15000000E+002   9.89732026E-001   7.63425064E-001   9.88934225E-001
   2.20000000E+002   9.90293739E-001   7.63093739E-001   9.89579737E-001
   2.25000000E+002   9.90901788E-001   7.62802474E-001   9.90261153E-001
   2.30000000E+002   9.91476905E-001   7.62545883E-001   9.90900921E-001
   2.35000000E+002   9.92020678E-001   7.62319360E-001   9.91501805E-001
   2.40000000E+002   9.92391266E-001   7.62118962E-001   9.91923260E-001
   2.45000000E+002   9.92896292E-001   7.61941311E-001   9.92473011E-001
