# ./jetvheto -in n3lo-fixed-order/H125-LHC13-R04-mb-475-mt-1725-xmur100-xmuf050-log.fxd -xQ 0.0625 -out benchmarks-n3lo-smallR/H125-LHC13-R04-mb-475-mt-1725-xmur100-xmuf050-xQ0625-N3LO+NNLLb.res -scheme b -order 2 -ptmax 500.01 -fixed_order 3 -loop-mass t+b
# process = H    
# collider = pp   
# rts =  13000.000
# M   =    125.000
# muR =    125.000
# muF =     62.500
# Q   =      7.812
# p   =      5.000
# include_c1_squared =   F
# loop_mass  = t+b 
# alphas(MZ) =    0.11800
# alphas(M) =    0.11264
# alphas(muR) =    0.11264
# Rjet =      0.400
# order = NNLL
# pdf name and set = PDF4LHC15_nnlo_mc.LHgrid,    0
# matching scheme = b
# total cross sections [nb] at LO, NLOdiff, NNLOdiff, N3LOdiff =     0.011575    0.016866    0.010424    0.004163
#----------------------------------------------------------------------
# the lines that follow give the jet-veto efficiencies as a function of pt
#         pt            matched eff      resummed eff     fixed-order eff
   2.00000000E+001   3.95226519E-001   2.67114262E-001   3.95043602E-001
   2.50000000E+001   4.88577991E-001   2.67609245E-001   4.88534588E-001
   3.00000000E+001   5.66114991E-001   2.67754199E-001   5.66104441E-001
   3.50000000E+001   6.28114601E-001   2.67806606E-001   6.28112290E-001
   4.00000000E+001   6.77231665E-001   2.67828597E-001   6.77231454E-001
   4.50000000E+001   7.19705439E-001   2.67838906E-001   7.19705835E-001
   5.00000000E+001   7.54443507E-001   2.67844170E-001   7.54443972E-001
   5.50000000E+001   7.84393781E-001   2.67847048E-001   7.84394199E-001
   6.00000000E+001   8.09448882E-001   2.67848710E-001   8.09449218E-001
   6.50000000E+001   8.31989253E-001   2.67849717E-001   8.31989521E-001
   7.00000000E+001   8.50311413E-001   2.67850350E-001   8.50311618E-001
   7.50000000E+001   8.66491904E-001   2.67850762E-001   8.66492063E-001
   8.00000000E+001   8.80975730E-001   2.67851037E-001   8.80975853E-001
   8.50000000E+001   8.93830771E-001   2.67851227E-001   8.93830869E-001
   9.00000000E+001   9.05112166E-001   2.67851359E-001   9.05112243E-001
   9.50000000E+001   9.14525803E-001   2.67851455E-001   9.14525864E-001
   1.00000000E+002   9.23254800E-001   2.67851524E-001   9.23254849E-001
   1.05000000E+002   9.30579998E-001   2.67851575E-001   9.30580037E-001
   1.10000000E+002   9.37191631E-001   2.67851614E-001   9.37191662E-001
   1.15000000E+002   9.43340355E-001   2.67851643E-001   9.43340381E-001
   1.20000000E+002   9.48846247E-001   2.67851666E-001   9.48846269E-001
   1.25000000E+002   9.53602070E-001   2.67851684E-001   9.53602088E-001
   1.30000000E+002   9.57779193E-001   2.67851697E-001   9.57779208E-001
   1.35000000E+002   9.61772497E-001   2.67851708E-001   9.61772510E-001
   1.40000000E+002   9.65409791E-001   2.67851717E-001   9.65409802E-001
   1.45000000E+002   9.68605572E-001   2.67851724E-001   9.68605581E-001
   1.50000000E+002   9.71278861E-001   2.67851730E-001   9.71278869E-001
   1.55000000E+002   9.74049053E-001   2.67851735E-001   9.74049059E-001
   1.60000000E+002   9.76541105E-001   2.67851739E-001   9.76541110E-001
   1.65000000E+002   9.78364378E-001   2.67851742E-001   9.78364382E-001
   1.70000000E+002   9.80362513E-001   2.67851745E-001   9.80362517E-001
   1.75000000E+002   9.82231183E-001   2.67851747E-001   9.82231187E-001
   1.80000000E+002   9.83757126E-001   2.67851749E-001   9.83757129E-001
   1.85000000E+002   9.85170082E-001   2.67851750E-001   9.85170084E-001
   1.90000000E+002   9.86541562E-001   2.67851752E-001   9.86541564E-001
   1.95000000E+002   9.87800608E-001   2.67851753E-001   9.87800610E-001
   2.00000000E+002   9.88926424E-001   2.67851754E-001   9.88926426E-001
   2.05000000E+002   9.89883346E-001   2.67851755E-001   9.89883347E-001
   2.10000000E+002   9.90794125E-001   2.67851755E-001   9.90794127E-001
   2.15000000E+002   9.91572411E-001   2.67851756E-001   9.91572413E-001
   2.20000000E+002   9.92490588E-001   2.67851757E-001   9.92490589E-001
   2.25000000E+002   9.93092143E-001   2.67851757E-001   9.93092144E-001
   2.30000000E+002   9.93749171E-001   2.67851758E-001   9.93749172E-001
   2.35000000E+002   9.94277811E-001   2.67851758E-001   9.94277812E-001
   2.40000000E+002   9.94810633E-001   2.67851758E-001   9.94810633E-001
   2.45000000E+002   9.95363563E-001   2.67851759E-001   9.95363563E-001
