# ./jetvheto -in n3lo-fixed-order/H125-LHC13-R04-mb-475-mt-1725-xmur050-xmuf025-log.fxd -xQ 0.5 -out benchmarks-n3lo-smallR/H125-LHC13-R04-mb-475-mt-1725-xmur050-xmuf025-xQ050-NNLO+NNLLa.R0-0.5.res -scheme a -order 2 -ptmax 500.01 -fixed_order 2 -small-r -loop-mass t+b -R0 0.5
# process = H    
# collider = pp   
# rts =  13000.000
# M   =    125.000
# muR =     62.500
# muF =     31.250
# Q   =     62.500
# p   =      5.000
# include_c1_squared =   F
# loop_mass  = t+b 
# alphas(MZ) =    0.11800
# alphas(M) =    0.11264
# alphas(muR) =    0.12516
# Rjet =      0.400
# order = NNLL
# pdf name and set = PDF4LHC15_nnlo_mc.LHgrid,    0
# matching scheme = a
# total cross sections [nb] at LO, NLOdiff, NNLOdiff, N3LOdiff =     0.012926    0.020318    0.009723    0.001827
#----------------------------------------------------------------------
# the lines that follow give the jet-veto efficiencies as a function of pt
#         pt            matched eff      resummed eff     fixed-order eff
   2.00000000E+001   4.35279107E-001   4.57043048E-001   4.49376256E-001
   2.50000000E+001   5.25225905E-001   5.35222188E-001   5.34025121E-001
   3.00000000E+001   5.96998792E-001   5.91314306E-001   6.00744622E-001
   3.50000000E+001   6.55048584E-001   6.31040147E-001   6.55033276E-001
   4.00000000E+001   7.02155952E-001   6.58718761E-001   6.99725943E-001
   4.50000000E+001   7.40773095E-001   6.77564031E-001   7.37098941E-001
   5.00000000E+001   7.72744898E-001   6.90046420E-001   7.68680039E-001
   5.50000000E+001   7.99404695E-001   6.98092806E-001   7.95502115E-001
   6.00000000E+001   8.22028535E-001   7.03166441E-001   8.18572628E-001
   6.50000000E+001   8.41453644E-001   7.06324600E-001   8.38542465E-001
   7.00000000E+001   8.58421117E-001   7.08287306E-001   8.56043590E-001
   7.50000000E+001   8.73029311E-001   7.09518344E-001   8.71122230E-001
   8.00000000E+001   8.86039811E-001   7.10304289E-001   8.84524140E-001
   8.50000000E+001   8.97577942E-001   7.10817609E-001   8.96376665E-001
   9.00000000E+001   9.07777908E-001   7.11161339E-001   9.06824852E-001
   9.50000000E+001   9.16752119E-001   7.11397336E-001   9.15993237E-001
   1.00000000E+002   9.24779893E-001   7.11563258E-001   9.24172569E-001
   1.05000000E+002   9.32023787E-001   7.11682488E-001   9.31534780E-001
   1.10000000E+002   9.38473145E-001   7.11769868E-001   9.38076899E-001
   1.15000000E+002   9.44310584E-001   7.11835044E-001   9.43987376E-001
   1.20000000E+002   9.49587264E-001   7.11884427E-001   9.49321865E-001
   1.25000000E+002   9.54296432E-001   7.11922372E-001   9.54077090E-001
   1.30000000E+002   9.58570373E-001   7.11951895E-001   9.58388001E-001
   1.35000000E+002   9.62420404E-001   7.11975125E-001   9.62267886E-001
   1.40000000E+002   9.65892620E-001   7.11993592E-001   9.65764337E-001
   1.45000000E+002   9.69104509E-001   7.12008407E-001   9.68996025E-001
   1.50000000E+002   9.71989086E-001   7.12020394E-001   9.71896874E-001
   1.55000000E+002   9.74613255E-001   7.12030169E-001   9.74534494E-001
   1.60000000E+002   9.77017718E-001   7.12038196E-001   9.76950138E-001
   1.65000000E+002   9.79194500E-001   7.12044831E-001   9.79136265E-001
   1.70000000E+002   9.81167472E-001   7.12050351E-001   9.81117078E-001
   1.75000000E+002   9.82964065E-001   7.12054968E-001   9.82920289E-001
   1.80000000E+002   9.84595474E-001   7.12058851E-001   9.84557304E-001
   1.85000000E+002   9.86076466E-001   7.12062133E-001   9.86043063E-001
   1.90000000E+002   9.87452358E-001   7.12064920E-001   9.87423030E-001
   1.95000000E+002   9.88712942E-001   7.12067298E-001   9.88687110E-001
   2.00000000E+002   9.89857884E-001   7.12069335E-001   9.89835060E-001
   2.05000000E+002   9.90916666E-001   7.12071086E-001   9.90896442E-001
   2.10000000E+002   9.91886351E-001   7.12072598E-001   9.91868380E-001
   2.15000000E+002   9.92741849E-001   7.12073908E-001   9.92725838E-001
   2.20000000E+002   9.93551238E-001   7.12075047E-001   9.93536937E-001
   2.25000000E+002   9.94286858E-001   7.12076040E-001   9.94274053E-001
   2.30000000E+002   9.94949006E-001   7.12076909E-001   9.94937514E-001
   2.35000000E+002   9.95567554E-001   7.12077672E-001   9.95557216E-001
   2.40000000E+002   9.96116757E-001   7.12078342E-001   9.96107437E-001
   2.45000000E+002   9.96618694E-001   7.12078934E-001   9.96610275E-001
