# ./jetvheto -in n3lo-fixed-order/H125-LHC13-R04-mb-0-mt-1725-xmur100-xmuf100-log.fxd -xQ 0.0625 -out benchmarks-n3lo-smallR/H125-LHC13-R04-mb-0-mt-1725-xmur100-xmuf100-xQ0625-N3LO+NNLLb.R0-2.0.res -scheme b -order 2 -ptmax 500.01 -small-r -fixed_order 3 -loop-mass t -R0 2.0
# process = H    
# collider = pp   
# rts =  13000.000
# M   =    125.000
# muR =    125.000
# muF =    125.000
# Q   =      7.812
# p   =      5.000
# include_c1_squared =   F
# loop_mass  = t   
# alphas(MZ) =    0.11800
# alphas(M) =    0.11264
# alphas(muR) =    0.11264
# Rjet =      0.400
# order = NNLL
# pdf name and set = PDF4LHC15_nnlo_mc.LHgrid,    0
# matching scheme = b
# total cross sections [nb] at LO, NLOdiff, NNLOdiff, N3LOdiff =     0.013801    0.017514    0.010146    0.003834
#----------------------------------------------------------------------
# the lines that follow give the jet-veto efficiencies as a function of pt
#         pt            matched eff      resummed eff     fixed-order eff
   2.00000000E+001   4.21785254E-001   2.85003598E-001   4.21593782E-001
   2.50000000E+001   5.14009487E-001   2.85519557E-001   5.13960990E-001
   3.00000000E+001   5.91028616E-001   2.85670651E-001   5.91015610E-001
   3.50000000E+001   6.50649728E-001   2.85725277E-001   6.50645918E-001
   4.00000000E+001   6.98838022E-001   2.85748199E-001   6.98836983E-001
   4.50000000E+001   7.37928233E-001   2.85758945E-001   7.37928057E-001
   5.00000000E+001   7.71030367E-001   2.85764432E-001   7.71030473E-001
   5.50000000E+001   7.99275459E-001   2.85767431E-001   7.99275639E-001
   6.00000000E+001   8.23059505E-001   2.85769164E-001   8.23059681E-001
   6.50000000E+001   8.44243600E-001   2.85770213E-001   8.44243758E-001
   7.00000000E+001   8.62070689E-001   2.85770873E-001   8.62070819E-001
   7.50000000E+001   8.76925360E-001   2.85771302E-001   8.76925464E-001
   8.00000000E+001   8.89967066E-001   2.85771590E-001   8.89967148E-001
   8.50000000E+001   9.01728422E-001   2.85771787E-001   9.01728487E-001
   9.00000000E+001   9.11747707E-001   2.85771926E-001   9.11747759E-001
   9.50000000E+001   9.20909571E-001   2.85772025E-001   9.20909613E-001
   1.00000000E+002   9.28579504E-001   2.85772097E-001   9.28579537E-001
   1.05000000E+002   9.35454599E-001   2.85772151E-001   9.35454626E-001
   1.10000000E+002   9.41628646E-001   2.85772191E-001   9.41628668E-001
   1.15000000E+002   9.47177115E-001   2.85772222E-001   9.47177133E-001
   1.20000000E+002   9.51996871E-001   2.85772245E-001   9.51996886E-001
   1.25000000E+002   9.56173921E-001   2.85772263E-001   9.56173934E-001
   1.30000000E+002   9.60356294E-001   2.85772278E-001   9.60356305E-001
   1.35000000E+002   9.64008431E-001   2.85772289E-001   9.64008440E-001
   1.40000000E+002   9.67091988E-001   2.85772298E-001   9.67091995E-001
   1.45000000E+002   9.70034893E-001   2.85772306E-001   9.70034899E-001
   1.50000000E+002   9.72527492E-001   2.85772312E-001   9.72527497E-001
   1.55000000E+002   9.75212451E-001   2.85772317E-001   9.75212455E-001
   1.60000000E+002   9.77041103E-001   2.85772321E-001   9.77041107E-001
   1.65000000E+002   9.78998047E-001   2.85772324E-001   9.78998050E-001
   1.70000000E+002   9.80709593E-001   2.85772327E-001   9.80709596E-001
   1.75000000E+002   9.82370621E-001   2.85772329E-001   9.82370623E-001
   1.80000000E+002   9.83895195E-001   2.85772331E-001   9.83895197E-001
   1.85000000E+002   9.85264521E-001   2.85772333E-001   9.85264523E-001
   1.90000000E+002   9.86225464E-001   2.85772334E-001   9.86225466E-001
   1.95000000E+002   9.87456495E-001   2.85772336E-001   9.87456496E-001
   2.00000000E+002   9.88501104E-001   2.85772337E-001   9.88501106E-001
   2.05000000E+002   9.89399964E-001   2.85772338E-001   9.89399966E-001
   2.10000000E+002   9.90204114E-001   2.85772338E-001   9.90204115E-001
   2.15000000E+002   9.91095718E-001   2.85772339E-001   9.91095719E-001
   2.20000000E+002   9.91741805E-001   2.85772340E-001   9.91741805E-001
   2.25000000E+002   9.92422309E-001   2.85772340E-001   9.92422310E-001
   2.30000000E+002   9.93056601E-001   2.85772341E-001   9.93056602E-001
   2.35000000E+002   9.93643502E-001   2.85772341E-001   9.93643503E-001
   2.40000000E+002   9.94041765E-001   2.85772341E-001   9.94041766E-001
   2.45000000E+002   9.94575393E-001   2.85772342E-001   9.94575393E-001
