# python build-Q2-histos.py --mtQ1file ../../JetVHeto/benchmarks-n3lo-smallR/H125-LHC13-R04-mb-0-mt-1725-xmur050-xmuf050-xQ050-N3LO+NNLLa.R0-0.5.res --mtQ2file ../../JetVHeto/benchmarks-n3lo-smallR/H125-LHC13-R04-mb-0-mt-1725-xmur050-xmuf050-xQ025-N3LO+NNLLa.R0-0.5.res --mtmbQ2file ../../JetVHeto/benchmarks-n3lo-smallR/H125-LHC13-R04-mb-475-mt-1725-xmur050-xmuf050-xQ025-N3LO+NNLLa.R0-0.5.res
# process = H    
# collider = pp   
# rts =  13000.000
# M   =    125.000
# muR =     62.500
# muF =     62.500
# Q1  =  62.500; Q2  =  31.250
# p   =      5.000
# include_c1_squared =   F
# loop_mass  = t+b 
# alphas(MZ) =    0.11800
# alphas(M) =    0.11264
# alphas(muR) =    0.12516
# Rjet =      0.400
# order = NNLL
# pdf name and set = PDF4LHC15_nnlo_mc.LHgrid,    0
# matching scheme = a
# total cross sections [nb] at LO, NLOdiff, NNLOdiff, N3LOdiff =     0.014147    0.020254    0.008998    0.001413
#----------------------------------------------------------------------
# the lines that follow give the jet-veto efficiencies as a function of pt
#         pt            matched eff      resummed eff     fixed-order eff
20.0 0.44503580942 0.474055190572 0.441074844
25.0 0.532258756823 0.550478133784 0.526291803
30.0 0.605672922593 0.605280878597 0.599588615
35.0 0.664164961263 0.644153995335 0.658104134
40.0 0.709530123272 0.671153015219 0.703699261
45.0 0.749062218929 0.689346620793 0.743908515
50.0 0.780683184317 0.701184652079 0.77626773
55.0 0.808071828078 0.708621801619 0.804438345
60.0 0.830593849377 0.713156251582 0.827667847
65.0 0.851382026857 0.715863073714 0.849073502
70.0 0.867578630769 0.717464097564 0.865767048
75.0 0.882086469926 0.718413997134 0.880674091
80.0 0.895238992052 0.718985324695 0.894138038
85.0 0.906967555385 0.719336285478 0.906106835
90.0 0.917287362647 0.719557641995 0.916611008
95.0 0.925613294635 0.719701307667 0.925078477
100.0 0.93352758621 0.719797264002 0.933101787
105.0 0.939927032253 0.719863147085 0.939585604
110.0 0.945770963668 0.719909553175 0.94549519
115.0 0.951318391292 0.719943012301 0.951094105
120.0 0.95629135745 0.719967645699 0.956107678
125.0 0.9604477347 0.719986121853 0.960296277
130.0 0.964063674797 0.720000208784 0.963938023
135.0 0.967651769502 0.720011108957 0.967546891
140.0 0.970918290392 0.720019652801 0.97083025
145.0 0.973738948503 0.720026427176 0.973664645
150.0 0.975950870362 0.720031857568 0.97588782
155.0 0.978465277928 0.720036246857 0.978411529
160.0 0.980714129133 0.720039828743 0.980668095
165.0 0.982113749241 0.720042771687 0.982074144
170.0 0.983884254577 0.720045208562 0.98385004
175.0 0.985550310289 0.720047237691 0.985520635
180.0 0.986823180576 0.72004893917 0.986797346
185.0 0.987997964282 0.720050372636 0.987975392
190.0 0.989192127162 0.720051587775 0.989172337
195.0 0.990292216475 0.720052620951 0.990274812
200.0 0.991261717528 0.720053505622 0.991246363
205.0 0.992036005994 0.720054265015 0.992022417
210.0 0.99280746582 0.720054919313 0.992795408
215.0 0.993413651543 0.720055485743 0.993402921
220.0 0.994268881752 0.720055976398 0.99425931
225.0 0.994714939349 0.720056404459 0.994706379
230.0 0.995257018513 0.720056780019 0.995249343
235.0 0.995660896333 0.720057107077 0.995654001
240.0 0.996094192259 0.720057396815 0.996087982
245.0 0.996591306699 0.720057651188 0.996585702
