# ./jetvheto -in n3lo-fixed-order/H125-LHC13-R04-mb-475-mt-1725-xmur100-xmuf050-log.fxd -xQ 0.25 -out benchmarks-n3lo-smallR/H125-LHC13-R04-mb-475-mt-1725-xmur100-xmuf050-xQ025-N3LO+NNLLa.res -scheme a -order 2 -ptmax 500.01 -fixed_order 3 -loop-mass t+b
# process = H    
# collider = pp   
# rts =  13000.000
# M   =    125.000
# muR =    125.000
# muF =     62.500
# Q   =     31.250
# p   =      5.000
# include_c1_squared =   F
# loop_mass  = t+b 
# alphas(MZ) =    0.11800
# alphas(M) =    0.11264
# alphas(muR) =    0.11264
# Rjet =      0.400
# order = NNLL
# pdf name and set = PDF4LHC15_nnlo_mc.LHgrid,    0
# matching scheme = a
# total cross sections [nb] at LO, NLOdiff, NNLOdiff, N3LOdiff =     0.011575    0.016866    0.010424    0.004163
#----------------------------------------------------------------------
# the lines that follow give the jet-veto efficiencies as a function of pt
#         pt            matched eff      resummed eff     fixed-order eff
   2.00000000E+001   4.45867815E-001   5.09007862E-001   4.53573922E-001
   2.50000000E+001   5.32875331E-001   5.80773488E-001   5.38019533E-001
   3.00000000E+001   6.04709858E-001   6.23292551E-001   6.08084402E-001
   3.50000000E+001   6.62004828E-001   6.46551750E-001   6.64092911E-001
   4.00000000E+001   7.07195668E-001   6.58808840E-001   7.08459732E-001
   4.50000000E+001   7.46020899E-001   6.65298310E-001   7.46824661E-001
   5.00000000E+001   7.77684032E-001   6.68836880E-001   7.78201838E-001
   5.50000000E+001   8.04908439E-001   6.70843016E-001   8.05254341E-001
   6.00000000E+001   8.27649791E-001   6.72026897E-001   8.27885254E-001
   6.50000000E+001   8.48078593E-001   6.72752394E-001   8.48244754E-001
   7.00000000E+001   8.64676204E-001   6.73212447E-001   8.64794164E-001
   7.50000000E+001   8.79323344E-001   6.73513217E-001   8.79409129E-001
   8.00000000E+001   8.92427902E-001   6.73715263E-001   8.92491595E-001
   8.50000000E+001   9.04054797E-001   6.73854304E-001   9.04102870E-001
   9.00000000E+001   9.14255953E-001   6.73952071E-001   9.14292757E-001
   9.50000000E+001   9.22767212E-001   6.74022154E-001   9.22795598E-001
   1.00000000E+002   9.30657805E-001   6.74073271E-001   9.30680042E-001
   1.05000000E+002   9.37278974E-001   6.74111143E-001   9.37296509E-001
   1.10000000E+002   9.43254464E-001   6.74139603E-001   9.43268451E-001
   1.15000000E+002   9.48810988E-001   6.74161268E-001   9.48822273E-001
   1.20000000E+002   9.53786276E-001   6.74177958E-001   9.53795459E-001
   1.25000000E+002   9.58083631E-001   6.74190954E-001   9.58091146E-001
   1.30000000E+002   9.61857932E-001   6.74201177E-001   9.61864125E-001
   1.35000000E+002   9.65465919E-001   6.74209292E-001   9.65471069E-001
   1.40000000E+002   9.68752138E-001   6.74215789E-001   9.68756448E-001
   1.45000000E+002   9.71639406E-001   6.74221032E-001   9.71643032E-001
   1.50000000E+002   9.74054615E-001   6.74225295E-001   9.74057675E-001
   1.55000000E+002   9.76557240E-001   6.74228785E-001   9.76559846E-001
   1.60000000E+002   9.78808559E-001   6.74231661E-001   9.78810789E-001
   1.65000000E+002   9.80455748E-001   6.74234045E-001   9.80457656E-001
   1.70000000E+002   9.82260823E-001   6.74236032E-001   9.82262469E-001
   1.75000000E+002   9.83948916E-001   6.74237698E-001   9.83950342E-001
   1.80000000E+002   9.85327408E-001   6.74239101E-001   9.85328648E-001
   1.85000000E+002   9.86603817E-001   6.74240288E-001   9.86604898E-001
   1.90000000E+002   9.87842739E-001   6.74241298E-001   9.87843685E-001
   1.95000000E+002   9.88980085E-001   6.74242160E-001   9.88980917E-001
   2.00000000E+002   9.89997076E-001   6.74242900E-001   9.89997809E-001
   2.05000000E+002   9.90861499E-001   6.74243536E-001   9.90862147E-001
   2.10000000E+002   9.91684233E-001   6.74244086E-001   9.91684807E-001
   2.15000000E+002   9.92387282E-001   6.74244562E-001   9.92387793E-001
   2.20000000E+002   9.93216679E-001   6.74244976E-001   9.93217135E-001
   2.25000000E+002   9.93760081E-001   6.74245338E-001   9.93760488E-001
   2.30000000E+002   9.94353583E-001   6.74245654E-001   9.94353948E-001
   2.35000000E+002   9.94831114E-001   6.74245932E-001   9.94831441E-001
   2.40000000E+002   9.95312417E-001   6.74246176E-001   9.95312711E-001
   2.45000000E+002   9.95811879E-001   6.74246392E-001   9.95812145E-001
