# ./jetvheto -in n3lo-fixed-order/H125-LHC13-R04-mb-0-mt-1725-xmur200-xmuf100-log.fxd -xQ 0.5 -out benchmarks-n3lo-smallR/H125-LHC13-R04-mb-0-mt-1725-xmur200-xmuf100-xQ050-N3LO+NNLLa.R0-2.0.res -scheme a -order 2 -ptmax 500.01 -small-r -fixed_order 3 -loop-mass t -R0 2.0
# process = H    
# collider = pp   
# rts =  13000.000
# M   =    125.000
# muR =    250.000
# muF =    125.000
# Q   =     62.500
# p   =      5.000
# include_c1_squared =   F
# loop_mass  = t   
# alphas(MZ) =    0.11800
# alphas(M) =    0.11264
# alphas(muR) =    0.10244
# Rjet =      0.400
# order = NNLL
# pdf name and set = PDF4LHC15_nnlo_mc.LHgrid,    0
# matching scheme = a
# total cross sections [nb] at LO, NLOdiff, NNLOdiff, N3LOdiff =     0.011501    0.015066    0.010526    0.005600
#----------------------------------------------------------------------
# the lines that follow give the jet-veto efficiencies as a function of pt
#         pt            matched eff      resummed eff     fixed-order eff
   2.00000000E+001   4.77793998E-001   5.41351021E-001   4.90754923E-001
   2.50000000E+001   5.64344795E-001   6.26691773E-001   5.73235191E-001
   3.00000000E+001   6.34760444E-001   6.87581561E-001   6.40126678E-001
   3.50000000E+001   6.89928292E-001   7.30520805E-001   6.92213126E-001
   4.00000000E+001   7.34158435E-001   7.60267324E-001   7.34315482E-001
   4.50000000E+001   7.69680144E-001   7.80381170E-001   7.68570187E-001
   5.00000000E+001   7.99152874E-001   7.93594937E-001   7.97452991E-001
   5.50000000E+001   8.23846197E-001   8.02022482E-001   8.22000414E-001
   6.00000000E+001   8.44506429E-001   8.07265440E-001   8.42763416E-001
   6.50000000E+001   8.62579542E-001   8.10477229E-001   8.61058104E-001
   7.00000000E+001   8.77826888E-001   8.12437382E-001   8.76555984E-001
   7.50000000E+001   8.90710822E-001   8.13643002E-001   8.89675686E-001
   8.00000000E+001   9.02017470E-001   8.14397318E-001   9.01186361E-001
   8.50000000E+001   9.12129319E-001   8.14880266E-001   9.11466536E-001
   9.00000000E+001   9.20856469E-001   8.15197664E-001   9.20328326E-001
   9.50000000E+001   9.28760019E-001   8.15411922E-001   9.28338424E-001
   1.00000000E+002   9.35520350E-001   8.15560337E-001   9.35182357E-001
   1.05000000E+002   9.41579427E-001   8.15665633E-001   9.41307045E-001
   1.10000000E+002   9.47000536E-001   8.15741975E-001   9.46779771E-001
   1.15000000E+002   9.51893428E-001   8.15798409E-001   9.51713368E-001
   1.20000000E+002   9.56185283E-001   8.15840851E-001   9.56037512E-001
   1.25000000E+002   9.59960127E-001   8.15873263E-001   9.59838094E-001
   1.30000000E+002   9.63622892E-001   8.15898355E-001   9.63521519E-001
   1.35000000E+002   9.66852372E-001   8.15918017E-001   9.66767667E-001
   1.40000000E+002   9.69645385E-001   8.15933594E-001   9.69574216E-001
   1.45000000E+002   9.72277629E-001   8.15946056E-001   9.72217507E-001
   1.50000000E+002   9.74549060E-001   8.15956115E-001   9.74498018E-001
   1.55000000E+002   9.76880329E-001   8.15964302E-001   9.76836788E-001
   1.60000000E+002   9.78632800E-001   8.15971014E-001   9.78595480E-001
   1.65000000E+002   9.80402736E-001   8.15976556E-001   9.80370612E-001
   1.70000000E+002   9.81976806E-001   8.15981160E-001   9.81949039E-001
   1.75000000E+002   9.83466945E-001   8.15985007E-001   9.83442850E-001
   1.80000000E+002   9.84839545E-001   8.15988241E-001   9.84818558E-001
   1.85000000E+002   9.86077295E-001   8.15990972E-001   9.86058950E-001
   1.90000000E+002   9.87038212E-001   8.15993290E-001   9.87022120E-001
   1.95000000E+002   9.88133321E-001   8.15995266E-001   9.88119161E-001
   2.00000000E+002   9.89083571E-001   8.15996959E-001   9.89071072E-001
   2.05000000E+002   9.89924620E-001   8.15998413E-001   9.89913555E-001
   2.10000000E+002   9.90680156E-001   8.15999669E-001   9.90670331E-001
   2.15000000E+002   9.91465626E-001   8.16000756E-001   9.91456881E-001
   2.20000000E+002   9.92087061E-001   8.16001701E-001   9.92079255E-001
   2.25000000E+002   9.92709924E-001   8.16002525E-001   9.92702941E-001
   2.30000000E+002   9.93289350E-001   8.16003246E-001   9.93283087E-001
   2.35000000E+002   9.93827666E-001   8.16003878E-001   9.93822036E-001
   2.40000000E+002   9.94233761E-001   8.16004435E-001   9.94228689E-001
   2.45000000E+002   9.94711594E-001   8.16004925E-001   9.94707015E-001
