# ./jetvheto -in n3lo-fixed-order/H125-LHC13-R04-mb-0-mt-1725-xmur050-xmuf025-log.fxd -xQ 0.5 -out benchmarks-n3lo-smallR/H125-LHC13-R04-mb-0-mt-1725-xmur050-xmuf025-xQ050-N3LO+NNLLb.R0-1.5.res -scheme b -order 2 -ptmax 500.01 -small-r -fixed_order 3 -loop-mass t -R0 1.5
# process = H    
# collider = pp   
# rts =  13000.000
# M   =    125.000
# muR =     62.500
# muF =     31.250
# Q   =     62.500
# p   =      5.000
# include_c1_squared =   F
# loop_mass  = t   
# alphas(MZ) =    0.11800
# alphas(M) =    0.11264
# alphas(muR) =    0.12516
# Rjet =      0.400
# order = NNLL
# pdf name and set = PDF4LHC15_nnlo_mc.LHgrid,    0
# matching scheme = b
# total cross sections [nb] at LO, NLOdiff, NNLOdiff, N3LOdiff =     0.014513    0.020714    0.009723    0.001827
#----------------------------------------------------------------------
# the lines that follow give the jet-veto efficiencies as a function of pt
#         pt            matched eff      resummed eff     fixed-order eff
   2.00000000E+001   4.53252726E-001   4.92681887E-001   4.32654271E-001
   2.50000000E+001   5.41942460E-001   5.71971068E-001   5.25438435E-001
   3.00000000E+001   6.11978712E-001   6.28644460E-001   5.98274849E-001
   3.50000000E+001   6.68092651E-001   6.68654199E-001   6.56673365E-001
   4.00000000E+001   7.14221555E-001   6.96437936E-001   7.04872664E-001
   4.50000000E+001   7.52736094E-001   7.15278684E-001   7.45219237E-001
   5.00000000E+001   7.84787433E-001   7.27693926E-001   7.78821557E-001
   5.50000000E+001   8.12654310E-001   7.35644616E-001   8.08005902E-001
   6.00000000E+001   8.35723255E-001   7.40617109E-001   8.32119932E-001
   6.50000000E+001   8.54329103E-001   7.43682193E-001   8.51541323E-001
   7.00000000E+001   8.71749869E-001   7.45565943E-001   8.69611350E-001
   7.50000000E+001   8.86654611E-001   7.46733314E-001   8.85012693E-001
   8.00000000E+001   8.99133286E-001   7.47469491E-001   8.97864534E-001
   8.50000000E+001   9.10571087E-001   7.47944578E-001   9.09587011E-001
   9.00000000E+001   9.20651053E-001   7.48259174E-001   9.19882297E-001
   9.50000000E+001   9.28200688E-001   7.48473012E-001   9.27593920E-001
   1.00000000E+002   9.36459808E-001   7.48622046E-001   9.35978860E-001
   1.05000000E+002   9.42842773E-001   7.48728343E-001   9.42457594E-001
   1.10000000E+002   9.49309212E-001   7.48805758E-001   9.48998949E-001
   1.15000000E+002   9.54896865E-001   7.48863202E-001   9.54644871E-001
   1.20000000E+002   9.59334958E-001   7.48906540E-001   9.59128590E-001
   1.25000000E+002   9.63155971E-001   7.48939723E-001   9.62985835E-001
   1.30000000E+002   9.67084560E-001   7.48965466E-001   9.66943495E-001
   1.35000000E+002   9.70335566E-001   7.48985675E-001   9.70217812E-001
   1.40000000E+002   9.73405524E-001   7.49001707E-001   9.73306693E-001
   1.45000000E+002   9.76220887E-001   7.49014550E-001   9.76137473E-001
   1.50000000E+002   9.78618334E-001   7.49024927E-001   9.78547560E-001
   1.55000000E+002   9.80818085E-001   7.49033379E-001   9.80757743E-001
   1.60000000E+002   9.83122652E-001   7.49040313E-001   9.83070991E-001
   1.65000000E+002   9.84828465E-001   7.49046042E-001   9.84784004E-001
   1.70000000E+002   9.86237261E-001   7.49050803E-001   9.86198834E-001
   1.75000000E+002   9.87928017E-001   7.49054784E-001   9.87894697E-001
   1.80000000E+002   9.89081836E-001   7.49058131E-001   9.89052814E-001
   1.85000000E+002   9.90399315E-001   7.49060958E-001   9.90373963E-001
   1.90000000E+002   9.91439835E-001   7.49063359E-001   9.91417603E-001
   1.95000000E+002   9.92555191E-001   7.49065406E-001   9.92535637E-001
   2.00000000E+002   9.93340765E-001   7.49067159E-001   9.93323508E-001
   2.05000000E+002   9.94117764E-001   7.49068667E-001   9.94102489E-001
   2.10000000E+002   9.94826292E-001   7.49069968E-001   9.94812733E-001
   2.15000000E+002   9.95605530E-001   7.49071095E-001   9.95593468E-001
   2.20000000E+002   9.96148399E-001   7.49072074E-001   9.96137634E-001
   2.25000000E+002   9.96794866E-001   7.49072929E-001   9.96785239E-001
   2.30000000E+002   9.97250970E-001   7.49073676E-001   9.97242338E-001
   2.35000000E+002   9.97573359E-001   7.49074331E-001   9.97565601E-001
   2.40000000E+002   9.98048573E-001   7.49074908E-001   9.98041587E-001
   2.45000000E+002   9.98448876E-001   7.49075417E-001   9.98442572E-001
