# ./jetvheto -in n3lo-fixed-order/H125-LHC13-R04-heft-xmur100-xmuf100-log.fxd -xQ 0.50 -out benchmarks-n3lo-smallR/H125-LHC13-R04-heft-xmur100-xmuf100-xQ050-N3LO+NNLLa.R0-1.0.res -scheme a -order 2 -ptmax 500.01 -fixed_order 3 -small-r -R0 1.0
# process = H    
# collider = pp   
# rts =  13000.000
# M   =    125.000
# muR =    125.000
# muF =    125.000
# Q   =     62.500
# p   =      5.000
# include_c1_squared =   F
# loop_mass  = none
# alphas(MZ) =    0.11800
# alphas(M) =    0.11264
# alphas(muR) =    0.11264
# Rjet =      0.400
# order = NNLL
# pdf name and set = PDF4LHC15_nnlo_mc.LHgrid,    0
# matching scheme = a
# total cross sections [nb] at LO, NLOdiff, NNLOdiff, N3LOdiff =     0.012945    0.016716    0.010146    0.003834
#----------------------------------------------------------------------
# the lines that follow give the jet-veto efficiencies as a function of pt
#         pt            matched eff      resummed eff     fixed-order eff
   2.00000000E+001   4.60483079E-001   5.17776287E-001   4.60774143E-001
   2.50000000E+001   5.46871390E-001   5.99447605E-001   5.45786875E-001
   3.00000000E+001   6.19001930E-001   6.57318625E-001   6.17068533E-001
   3.50000000E+001   6.75111833E-001   6.97819720E-001   6.72113648E-001
   4.00000000E+001   7.20254710E-001   7.25635199E-001   7.16667414E-001
   4.50000000E+001   7.56589722E-001   7.44252313E-001   7.52873009E-001
   5.00000000E+001   7.87051593E-001   7.56332590E-001   7.83562730E-001
   5.50000000E+001   8.12851810E-001   7.63921118E-001   8.09784074E-001
   6.00000000E+001   8.34455015E-001   7.68555021E-001   8.31871310E-001
   6.50000000E+001   8.53706923E-001   7.71330752E-001   8.51599627E-001
   7.00000000E+001   8.69905708E-001   7.72980955E-001   8.68219188E-001
   7.50000000E+001   8.83351556E-001   7.73966479E-001   8.82015993E-001
   8.00000000E+001   8.95177637E-001   7.74563875E-001   8.94125116E-001
   8.50000000E+001   9.05898109E-001   7.74934101E-001   9.05069202E-001
   9.00000000E+001   9.15079471E-001   7.75169735E-001   9.14424589E-001
   9.50000000E+001   9.23503517E-001   7.75324034E-001   9.22983790E-001
   1.00000000E+002   9.30537500E-001   7.75427976E-001   9.30122626E-001
   1.05000000E+002   9.36862743E-001   7.75499906E-001   9.36529413E-001
   1.10000000E+002   9.42586710E-001   7.75550937E-001   9.42317122E-001
   1.15000000E+002   9.47718544E-001   7.75587962E-001   9.47498999E-001
   1.20000000E+002   9.52192643E-001   7.75615370E-001   9.52012685E-001
   1.25000000E+002   9.56061677E-001   7.75636023E-001   9.55913202E-001
   1.30000000E+002   9.59936480E-001   7.75651835E-001   9.59813209E-001
   1.35000000E+002   9.63357648E-001   7.75664111E-001   9.63254687E-001
   1.40000000E+002   9.66213251E-001   7.75673761E-001   9.66126784E-001
   1.45000000E+002   9.68962522E-001   7.75681431E-001   9.68889494E-001
   1.50000000E+002   9.71287336E-001   7.75687590E-001   9.71225357E-001
   1.55000000E+002   9.73784674E-001   7.75692579E-001   9.73731807E-001
   1.60000000E+002   9.75489648E-001   7.75696654E-001   9.75444349E-001
   1.65000000E+002   9.77322273E-001   7.75700008E-001   9.77283286E-001
   1.70000000E+002   9.78938315E-001   7.75702787E-001   9.78904621E-001
   1.75000000E+002   9.80515082E-001   7.75705105E-001   9.80485847E-001
   1.80000000E+002   9.81966651E-001   7.75707048E-001   9.81941189E-001
   1.85000000E+002   9.83273381E-001   7.75708687E-001   9.83251126E-001
   1.90000000E+002   9.84190041E-001   7.75710076E-001   9.84170523E-001
   1.95000000E+002   9.85379489E-001   7.75711259E-001   9.85362313E-001
   2.00000000E+002   9.86398565E-001   7.75712271E-001   9.86383405E-001
   2.05000000E+002   9.87273485E-001   7.75713140E-001   9.87260065E-001
   2.10000000E+002   9.88068208E-001   7.75713890E-001   9.88056295E-001
   2.15000000E+002   9.88944830E-001   7.75714539E-001   9.88934225E-001
   2.20000000E+002   9.89589201E-001   7.75715102E-001   9.89579737E-001
   2.25000000E+002   9.90269620E-001   7.75715593E-001   9.90261153E-001
   2.30000000E+002   9.90908514E-001   7.75716022E-001   9.90900921E-001
   2.35000000E+002   9.91508631E-001   7.75716399E-001   9.91501805E-001
   2.40000000E+002   9.91929408E-001   7.75716730E-001   9.91923260E-001
   2.45000000E+002   9.92478561E-001   7.75717022E-001   9.92473011E-001
