# ./jetvheto -in n3lo-fixed-order/H125-LHC13-R04-heft-xmur025-xmuf050-log.fxd -xQ 0.50 -out benchmarks-n3lo-smallR/H125-LHC13-R04-heft-xmur025-xmuf050-xQ050-N3LO+NNLLb.R0-0.5.res -scheme b -order 2 -ptmax 500.01 -fixed_order 3 -small-r -R0 0.5
# process = H    
# collider = pp   
# rts =  13000.000
# M   =    125.000
# muR =     31.250
# muF =     62.500
# Q   =     62.500
# p   =      5.000
# include_c1_squared =   F
# loop_mass  = none
# alphas(MZ) =    0.11800
# alphas(M) =    0.11264
# alphas(muR) =    0.14091
# Rjet =      0.400
# order = NNLL
# pdf name and set = PDF4LHC15_nnlo_mc.LHgrid,    0
# matching scheme = b
# total cross sections [nb] at LO, NLOdiff, NNLOdiff, N3LOdiff =     0.019087    0.023444    0.005009   -0.002663
#----------------------------------------------------------------------
# the lines that follow give the jet-veto efficiencies as a function of pt
#         pt            matched eff      resummed eff     fixed-order eff
   2.00000000E+001   4.80202758E-001   4.93175277E-001   4.83550645E-001
   2.50000000E+001   5.64305764E-001   5.63270090E-001   5.61663798E-001
   3.00000000E+001   6.37317720E-001   6.11629589E-001   6.33146331E-001
   3.50000000E+001   6.94145178E-001   6.44563826E-001   6.89320244E-001
   4.00000000E+001   7.36242835E-001   6.66508499E-001   7.31304139E-001
   4.50000000E+001   7.74074879E-001   6.80658840E-001   7.69670236E-001
   5.00000000E+001   8.03085016E-001   6.89408131E-001   7.99316506E-001
   5.50000000E+001   8.28784325E-001   6.94564794E-001   8.25709641E-001
   6.00000000E+001   8.49096473E-001   6.97455690E-001   8.46646269E-001
   6.50000000E+001   8.68996995E-001   6.98995881E-001   8.67078465E-001
   7.00000000E+001   8.82971035E-001   6.99774478E-001   8.81478648E-001
   7.50000000E+001   8.95882762E-001   7.00144542E-001   8.94727956E-001
   8.00000000E+001   9.07834879E-001   7.00304901E-001   9.06939030E-001
   8.50000000E+001   9.18525629E-001   7.00362033E-001   9.17827771E-001
   9.00000000E+001   9.28008257E-001   7.00371034E-001   9.27461369E-001
   9.50000000E+001   9.35032565E-001   7.00359409E-001   9.34602235E-001
   1.00000000E+002   9.42067290E-001   7.00340432E-001   9.41725608E-001
   1.05000000E+002   9.47219972E-001   7.00320229E-001   9.46947268E-001
   1.10000000E+002   9.52111604E-001   7.00301414E-001   9.51892145E-001
   1.15000000E+002   9.56952211E-001   7.00284912E-001   9.56774222E-001
   1.20000000E+002   9.61332614E-001   7.00270874E-001   9.61187239E-001
   1.25000000E+002   9.64661468E-001   7.00259123E-001   9.64541996E-001
   1.30000000E+002   9.67514647E-001   7.00249367E-001   9.67415911E-001
   1.35000000E+002   9.70648862E-001   7.00241295E-001   9.70566662E-001
   1.40000000E+002   9.73490626E-001   7.00234621E-001   9.73421804E-001
   1.45000000E+002   9.75834876E-001   7.00229097E-001   9.75776965E-001
   1.50000000E+002   9.77356389E-001   7.00224514E-001   9.77307429E-001
   1.55000000E+002   9.79602939E-001   7.00220700E-001   9.79561296E-001
   1.60000000E+002   9.81615440E-001   7.00217516E-001   9.81579860E-001
   1.65000000E+002   9.82354816E-001   7.00214847E-001   9.82324329E-001
   1.70000000E+002   9.83896788E-001   7.00212603E-001   9.83870516E-001
   1.75000000E+002   9.85363150E-001   7.00210707E-001   9.85340414E-001
   1.80000000E+002   9.86324084E-001   7.00209101E-001   9.86304351E-001
   1.85000000E+002   9.87194603E-001   7.00207734E-001   9.87177411E-001
   1.90000000E+002   9.88213652E-001   7.00206566E-001   9.88198614E-001
   1.95000000E+002   9.89167235E-001   7.00205565E-001   9.89154041E-001
   2.00000000E+002   9.89992699E-001   7.00204705E-001   9.89981086E-001
   2.05000000E+002   9.90559784E-001   7.00203962E-001   9.90549533E-001
   2.10000000E+002   9.91221252E-001   7.00203319E-001   9.91212177E-001
   2.15000000E+002   9.91622439E-001   7.00202760E-001   9.91614383E-001
   2.20000000E+002   9.92507864E-001   7.00202273E-001   9.92500689E-001
   2.25000000E+002   9.92782020E-001   7.00201848E-001   9.92775620E-001
   2.30000000E+002   9.93232243E-001   7.00201475E-001   9.93226516E-001
   2.35000000E+002   9.93518402E-001   7.00201147E-001   9.93513267E-001
   2.40000000E+002   9.93885864E-001   7.00200859E-001   9.93881249E-001
   2.45000000E+002   9.94413999E-001   7.00200604E-001   9.94409841E-001
