# ./jetvheto -in n3lo-fixed-order/H125-LHC13-R04-mb-0-mt-1725-xmur025-xmuf050-log.fxd -xQ 0.5 -out benchmarks-n3lo-smallR/H125-LHC13-R04-mb-0-mt-1725-xmur025-xmuf050-xQ050-N3LO+NNLLa.res -scheme a -order 2 -ptmax 500.01 -fixed_order 3 -loop-mass t
# process = H    
# collider = pp   
# rts =  13000.000
# M   =    125.000
# muR =     31.250
# muF =     62.500
# Q   =     62.500
# p   =      5.000
# include_c1_squared =   F
# loop_mass  = t   
# alphas(MZ) =    0.11800
# alphas(M) =    0.11264
# alphas(muR) =    0.14091
# Rjet =      0.400
# order = NNLL
# pdf name and set = PDF4LHC15_nnlo_mc.LHgrid,    0
# matching scheme = a
# total cross sections [nb] at LO, NLOdiff, NNLOdiff, N3LOdiff =     0.019855    0.024744    0.005009   -0.002663
#----------------------------------------------------------------------
# the lines that follow give the jet-veto efficiencies as a function of pt
#         pt            matched eff      resummed eff     fixed-order eff
   2.00000000E+001   4.78146126E-001   4.90779128E-001   4.64441433E-001
   2.50000000E+001   5.61110933E-001   5.60721203E-001   5.46982713E-001
   3.00000000E+001   6.33335455E-001   6.08981426E-001   6.21747969E-001
   3.50000000E+001   6.90074338E-001   6.41851962E-001   6.80660873E-001
   4.00000000E+001   7.32324918E-001   6.63757448E-001   7.24684346E-001
   4.50000000E+001   7.70588151E-001   6.77885528E-001   7.64688533E-001
   5.00000000E+001   8.00370032E-001   6.86623821E-001   7.95840800E-001
   5.50000000E+001   8.26594372E-001   6.91776457E-001   8.23173148E-001
   6.00000000E+001   8.47626742E-001   6.94667187E-001   8.45052906E-001
   6.50000000E+001   8.68251187E-001   6.96209024E-001   8.66318719E-001
   7.00000000E+001   8.82788797E-001   6.96989866E-001   8.81329841E-001
   7.50000000E+001   8.96224505E-001   6.97362157E-001   8.95119563E-001
   8.00000000E+001   9.08658690E-001   6.97524465E-001   9.07814578E-001
   8.50000000E+001   9.19782595E-001   6.97583201E-001   9.19132236E-001
   9.00000000E+001   9.29620698E-001   6.97593482E-001   9.29114976E-001
   9.50000000E+001   9.36920286E-001   6.97582860E-001   9.36524636E-001
   1.00000000E+002   9.44276185E-001   6.97564663E-001   9.43963449E-001
   1.05000000E+002   9.49627014E-001   6.97545068E-001   9.49378223E-001
   1.10000000E+002   9.54678002E-001   6.97526726E-001   9.54478252E-001
   1.15000000E+002   9.59700811E-001   6.97510594E-001   9.59539125E-001
   1.20000000E+002   9.64237471E-001   6.97496847E-001   9.64105612E-001
   1.25000000E+002   9.67732526E-001   6.97485327E-001   9.67624322E-001
   1.30000000E+002   9.70684686E-001   6.97475754E-001   9.70595359E-001
   1.35000000E+002   9.73891958E-001   6.97467830E-001   9.73817644E-001
   1.40000000E+002   9.76820413E-001   6.97461275E-001   9.76758237E-001
   1.45000000E+002   9.79277330E-001   6.97455847E-001   9.79225058E-001
   1.50000000E+002   9.80884401E-001   6.97451343E-001   9.80840244E-001
   1.55000000E+002   9.83211158E-001   6.97447594E-001   9.83173622E-001
   1.60000000E+002   9.85272426E-001   6.97444464E-001   9.85240369E-001
   1.65000000E+002   9.86045927E-001   6.97441840E-001   9.86018475E-001
   1.70000000E+002   9.87619745E-001   6.97439633E-001   9.87596097E-001
   1.75000000E+002   9.89091025E-001   6.97437769E-001   9.89070565E-001
   1.80000000E+002   9.90047919E-001   6.97436188E-001   9.90030165E-001
   1.85000000E+002   9.90919507E-001   6.97434844E-001   9.90904044E-001
   1.90000000E+002   9.91931683E-001   6.97433695E-001   9.91918160E-001
   1.95000000E+002   9.92880611E-001   6.97432711E-001   9.92868747E-001
   2.00000000E+002   9.93692706E-001   6.97431864E-001   9.93682266E-001
   2.05000000E+002   9.94227222E-001   6.97431133E-001   9.94218008E-001
   2.10000000E+002   9.94848868E-001   6.97430501E-001   9.94840712E-001
   2.15000000E+002   9.95216352E-001   6.97429951E-001   9.95209113E-001
   2.20000000E+002   9.96067541E-001   6.97429472E-001   9.96061092E-001
   2.25000000E+002   9.96298253E-001   6.97429053E-001   9.96292501E-001
   2.30000000E+002   9.96704954E-001   6.97428687E-001   9.96699807E-001
   2.35000000E+002   9.96937850E-001   6.97428364E-001   9.96933235E-001
   2.40000000E+002   9.97255053E-001   6.97428080E-001   9.97250905E-001
   2.45000000E+002   9.97731236E-001   6.97427830E-001   9.97727498E-001
