# ./jetvheto -in n3lo-fixed-order/H125-LHC13-R04-mb-0-mt-1725-xmur050-xmuf050-log.fxd -xQ 0.25 -out benchmarks-n3lo-smallR/H125-LHC13-R04-mb-0-mt-1725-xmur050-xmuf050-xQ025-N3LO+NNLLb.R0-1.5.res -scheme b -order 2 -ptmax 500.01 -small-r -fixed_order 3 -loop-mass t -R0 1.5
# process = H    
# collider = pp   
# rts =  13000.000
# M   =    125.000
# muR =     62.500
# muF =     62.500
# Q   =     31.250
# p   =      5.000
# include_c1_squared =   F
# loop_mass  = t   
# alphas(MZ) =    0.11800
# alphas(M) =    0.11264
# alphas(muR) =    0.12516
# Rjet =      0.400
# order = NNLL
# pdf name and set = PDF4LHC15_nnlo_mc.LHgrid,    0
# matching scheme = b
# total cross sections [nb] at LO, NLOdiff, NNLOdiff, N3LOdiff =     0.015885    0.020561    0.008998    0.001413
#----------------------------------------------------------------------
# the lines that follow give the jet-veto efficiencies as a function of pt
#         pt            matched eff      resummed eff     fixed-order eff
   2.00000000E+001   4.48778903E-001   4.96921280E-001   4.41643521E-001
   2.50000000E+001   5.33734692E-001   5.65963735E-001   5.29528045E-001
   3.00000000E+001   6.06201281E-001   6.06850462E-001   6.04131024E-001
   3.50000000E+001   6.64413968E-001   6.29212787E-001   6.63337130E-001
   4.00000000E+001   7.09932634E-001   6.40996412E-001   7.09302441E-001
   4.50000000E+001   7.49726774E-001   6.47235016E-001   7.49371437E-001
   5.00000000E+001   7.81922829E-001   6.50636744E-001   7.81702411E-001
   5.50000000E+001   8.09603922E-001   6.52565285E-001   8.09465789E-001
   6.00000000E+001   8.32471779E-001   6.53703370E-001   8.32379427E-001
   6.50000000E+001   8.53565191E-001   6.54400802E-001   8.53504482E-001
   7.00000000E+001   8.69898675E-001   6.54843056E-001   8.69854849E-001
   7.50000000E+001   8.84472304E-001   6.55132191E-001   8.84440584E-001
   8.00000000E+001   8.97606189E-001   6.55326419E-001   8.97583035E-001
   8.50000000E+001   9.09250493E-001   6.55460082E-001   9.09233323E-001
   9.00000000E+001   9.19515605E-001   6.55554066E-001   9.19502663E-001
   9.50000000E+001   9.27738409E-001   6.55621438E-001   9.27728280E-001
   1.00000000E+002   9.35571134E-001   6.55670577E-001   9.35563225E-001
   1.05000000E+002   9.41794725E-001   6.55706983E-001   9.41788367E-001
   1.10000000E+002   9.47508199E-001   6.55734342E-001   9.47503067E-001
   1.15000000E+002   9.52907144E-001   6.55755169E-001   9.52903001E-001
   1.20000000E+002   9.57769769E-001   6.55771213E-001   9.57766396E-001
   1.25000000E+002   9.61824575E-001   6.55783707E-001   9.61821780E-001
   1.30000000E+002   9.65323205E-001   6.55793534E-001   9.65320871E-001
   1.35000000E+002   9.68791864E-001   6.55801335E-001   9.68789919E-001
   1.40000000E+002   9.71952982E-001   6.55807580E-001   9.71951352E-001
   1.45000000E+002   9.74704262E-001   6.55812621E-001   9.74702884E-001
   1.50000000E+002   9.76855630E-001   6.55816719E-001   9.76854447E-001
   1.55000000E+002   9.79290607E-001   6.55820074E-001   9.79289601E-001
   1.60000000E+002   9.81471540E-001   6.55822838E-001   9.81470679E-001
   1.65000000E+002   9.82817670E-001   6.55825130E-001   9.82816919E-001
   1.70000000E+002   9.84548096E-001   6.55827040E-001   9.84547446E-001
   1.75000000E+002   9.86143090E-001   6.55828642E-001   9.86142527E-001
   1.80000000E+002   9.87366121E-001   6.55829990E-001   9.87365627E-001
   1.85000000E+002   9.88490002E-001   6.55831132E-001   9.88489569E-001
   1.90000000E+002   9.89640182E-001   6.55832103E-001   9.89639801E-001
   1.95000000E+002   9.90702057E-001   6.55832932E-001   9.90701722E-001
   2.00000000E+002   9.91640828E-001   6.55833642E-001   9.91640532E-001
   2.05000000E+002   9.92381535E-001   6.55834254E-001   9.92381271E-001
   2.10000000E+002   9.93124590E-001   6.55834782E-001   9.93124356E-001
   2.15000000E+002   9.93702376E-001   6.55835240E-001   9.93702166E-001
   2.20000000E+002   9.94524157E-001   6.55835639E-001   9.94523970E-001
   2.25000000E+002   9.94951383E-001   6.55835986E-001   9.94951215E-001
   2.30000000E+002   9.95476874E-001   6.55836290E-001   9.95476723E-001
   2.35000000E+002   9.95859655E-001   6.55836557E-001   9.95859519E-001
   2.40000000E+002   9.96276877E-001   6.55836792E-001   9.96276754E-001
   2.45000000E+002   9.96764590E-001   6.55837000E-001   9.96764480E-001
