# ./jetvheto -in n3lo-fixed-order/H125-LHC13-R04-heft-xmur100-xmuf100-log.fxd -xQ 0.333 -out benchmarks-n3lo-smallR/H125-LHC13-R04-heft-xmur100-xmuf100-xQ033-N3LO+NNLLb.R0-0.5.res -scheme b -order 2 -ptmax 500.01 -fixed_order 3 -small-r -R0 0.5
# process = H    
# collider = pp   
# rts =  13000.000
# M   =    125.000
# muR =    125.000
# muF =    125.000
# Q   =     41.625
# p   =      5.000
# include_c1_squared =   F
# loop_mass  = none
# alphas(MZ) =    0.11800
# alphas(M) =    0.11264
# alphas(muR) =    0.11264
# Rjet =      0.400
# order = NNLL
# pdf name and set = PDF4LHC15_nnlo_mc.LHgrid,    0
# matching scheme = b
# total cross sections [nb] at LO, NLOdiff, NNLOdiff, N3LOdiff =     0.012945    0.016716    0.010146    0.003834
#----------------------------------------------------------------------
# the lines that follow give the jet-veto efficiencies as a function of pt
#         pt            matched eff      resummed eff     fixed-order eff
   2.00000000E+001   4.31144642E-001   5.19342417E-001   4.08842854E-001
   2.50000000E+001   5.15665828E-001   5.98986643E-001   5.02042917E-001
   3.00000000E+001   5.88094100E-001   6.52759576E-001   5.80189507E-001
   3.50000000E+001   6.45345448E-001   6.87541150E-001   6.40535859E-001
   4.00000000E+001   6.92348440E-001   7.09098429E-001   6.89380469E-001
   4.50000000E+001   7.30937087E-001   7.22067964E-001   7.29072921E-001
   5.00000000E+001   7.63899482E-001   7.29793084E-001   7.62718280E-001
   5.50000000E+001   7.92225250E-001   7.34430092E-001   7.91464926E-001
   6.00000000E+001   8.16182990E-001   7.37266959E-001   8.15679320E-001
   6.50000000E+001   8.37645786E-001   7.39045531E-001   8.37307615E-001
   7.00000000E+001   8.55761585E-001   7.40190006E-001   8.55527758E-001
   7.50000000E+001   8.70820219E-001   7.40945456E-001   8.70653294E-001
   8.00000000E+001   8.84050006E-001   7.41456213E-001   8.83928611E-001
   8.50000000E+001   8.96016061E-001   7.41809254E-001   8.95926690E-001
   9.00000000E+001   9.06250333E-001   7.42058260E-001   9.06183068E-001
   9.50000000E+001   9.15617703E-001   7.42237148E-001   9.15566581E-001
   1.00000000E+002   9.23432595E-001   7.42367831E-001   9.23392937E-001
   1.05000000E+002   9.30447858E-001   7.42464766E-001   9.30416744E-001
   1.10000000E+002   9.36786494E-001   7.42537674E-001   9.36761850E-001
   1.15000000E+002   9.42462511E-001   7.42593213E-001   9.42442779E-001
   1.20000000E+002   9.47407138E-001   7.42636018E-001   9.47391165E-001
   1.25000000E+002   9.51680401E-001   7.42669365E-001   9.51667329E-001
   1.30000000E+002   9.55953654E-001   7.42695601E-001   9.55942935E-001
   1.35000000E+002   9.59724721E-001   7.42716434E-001   9.59715852E-001
   1.40000000E+002   9.62871963E-001   7.42733117E-001   9.62864552E-001
   1.45000000E+002   9.65899552E-001   7.42746583E-001   9.65893331E-001
   1.50000000E+002   9.68459417E-001   7.42757532E-001   9.68454154E-001
   1.55000000E+002   9.71206445E-001   7.42766497E-001   9.71201993E-001
   1.60000000E+002   9.73083284E-001   7.42773884E-001   9.73079465E-001
   1.65000000E+002   9.75098783E-001   7.42780008E-001   9.75095505E-001
   1.70000000E+002   9.76875814E-001   7.42785113E-001   9.76872986E-001
   1.75000000E+002   9.78608942E-001   7.42789393E-001   9.78606495E-001
   1.80000000E+002   9.80204122E-001   7.42792998E-001   9.80201996E-001
   1.85000000E+002   9.81639944E-001   7.42796050E-001   9.81638090E-001
   1.90000000E+002   9.82647662E-001   7.42798645E-001   9.82646032E-001
   1.95000000E+002   9.83954031E-001   7.42800861E-001   9.83952600E-001
   2.00000000E+002   9.85073292E-001   7.42802760E-001   9.85072030E-001
   2.05000000E+002   9.86034235E-001   7.42804395E-001   9.86033119E-001
   2.10000000E+002   9.86907022E-001   7.42805808E-001   9.86906031E-001
   2.15000000E+002   9.87869392E-001   7.42807032E-001   9.87868512E-001
   2.20000000E+002   9.88576977E-001   7.42808097E-001   9.88576191E-001
   2.25000000E+002   9.89323935E-001   7.42809026E-001   9.89323232E-001
   2.30000000E+002   9.90025244E-001   7.42809839E-001   9.90024614E-001
   2.35000000E+002   9.90683935E-001   7.42810553E-001   9.90683369E-001
   2.40000000E+002   9.91145923E-001   7.42811181E-001   9.91145412E-001
   2.45000000E+002   9.91748569E-001   7.42811735E-001   9.91748108E-001
