# ./jetvheto -in n3lo-fixed-order/H125-LHC13-R04-mb-0-mt-1725-xmur050-xmuf025-log.fxd -xQ 0.5 -out benchmarks-n3lo-smallR/H125-LHC13-R04-mb-0-mt-1725-xmur050-xmuf025-xQ050-NNLO+NNLLa.R0-0.5.res -scheme a -order 2 -ptmax 500.01 -small-r -fixed_order 2 -loop-mass t -R0 0.5
# process = H    
# collider = pp   
# rts =  13000.000
# M   =    125.000
# muR =     62.500
# muF =     31.250
# Q   =     62.500
# p   =      5.000
# include_c1_squared =   F
# loop_mass  = t   
# alphas(MZ) =    0.11800
# alphas(M) =    0.11264
# alphas(muR) =    0.12516
# Rjet =      0.400
# order = NNLL
# pdf name and set = PDF4LHC15_nnlo_mc.LHgrid,    0
# matching scheme = a
# total cross sections [nb] at LO, NLOdiff, NNLOdiff, N3LOdiff =     0.014513    0.020714    0.009723    0.001827
#----------------------------------------------------------------------
# the lines that follow give the jet-veto efficiencies as a function of pt
#         pt            matched eff      resummed eff     fixed-order eff
   2.00000000E+001   4.53999660E-001   4.80946610E-001   4.65116582E-001
   2.50000000E+001   5.44455661E-001   5.63164743E-001   5.50748567E-001
   3.00000000E+001   6.15779575E-001   6.22147371E-001   6.17529161E-001
   3.50000000E+001   6.72737990E-001   6.63915163E-001   6.71215264E-001
   4.00000000E+001   7.18532104E-001   6.93012573E-001   7.15019810E-001
   4.50000000E+001   7.55681160E-001   7.12820769E-001   7.51263285E-001
   5.00000000E+001   7.86329890E-001   7.25938538E-001   7.81771475E-001
   5.50000000E+001   8.11780749E-001   7.34392618E-001   8.07558389E-001
   6.00000000E+001   8.33311700E-001   7.39721915E-001   8.29651327E-001
   6.50000000E+001   8.51770356E-001   7.43038201E-001   8.48728738E-001
   7.00000000E+001   8.67765599E-001   7.45098481E-001   8.65304940E-001
   7.50000000E+001   8.81575406E-001   7.46390255E-001   8.79614533E-001
   8.00000000E+001   8.93844451E-001   7.47214681E-001   8.92293484E-001
   8.50000000E+001   9.04599105E-001   7.47752948E-001   9.03374587E-001
   9.00000000E+001   9.14171157E-001   7.48113270E-001   9.13202411E-001
   9.50000000E+001   9.22588810E-001   7.48360589E-001   9.21819156E-001
   1.00000000E+002   9.30152414E-001   7.48534429E-001   9.29537526E-001
   1.05000000E+002   9.36935409E-001   7.48659323E-001   9.36441049E-001
   1.10000000E+002   9.42962625E-001   7.48750839E-001   9.42562544E-001
   1.15000000E+002   9.48431037E-001   7.48819090E-001   9.48105041E-001
   1.20000000E+002   9.53339241E-001   7.48870797E-001   9.53071810E-001
   1.25000000E+002   9.57692440E-001   7.48910524E-001   9.57471615E-001
   1.30000000E+002   9.61663817E-001   7.48941431E-001   9.61480347E-001
   1.35000000E+002   9.65241666E-001   7.48965749E-001   9.65088327E-001
   1.40000000E+002   9.68490649E-001   7.48985079E-001   9.68361743E-001
   1.45000000E+002   9.71468231E-001   7.49000586E-001   9.71359278E-001
   1.50000000E+002   9.74133435E-001   7.49013133E-001   9.74040869E-001
   1.55000000E+002   9.76557711E-001   7.49023363E-001   9.76478682E-001
   1.60000000E+002   9.78780990E-001   7.49031764E-001   9.78713207E-001
   1.65000000E+002   9.80803864E-001   7.49038709E-001   9.80745474E-001
   1.70000000E+002   9.82621450E-001   7.49044486E-001   9.82570938E-001
   1.75000000E+002   9.84283392E-001   7.49049318E-001   9.84239526E-001
   1.80000000E+002   9.85804538E-001   7.49053381E-001   9.85766299E-001
   1.85000000E+002   9.87180765E-001   7.49056816E-001   9.87147310E-001
   1.90000000E+002   9.88456225E-001   7.49059733E-001   9.88426858E-001
   1.95000000E+002   9.89631004E-001   7.49062222E-001   9.89605142E-001
   2.00000000E+002   9.90685848E-001   7.49064353E-001   9.90663002E-001
   2.05000000E+002   9.91668112E-001   7.49066186E-001   9.91647871E-001
   2.10000000E+002   9.92574415E-001   7.49067769E-001   9.92556433E-001
   2.15000000E+002   9.93361031E-001   7.49069140E-001   9.93345012E-001
   2.20000000E+002   9.94106308E-001   7.49070332E-001   9.94092001E-001
   2.25000000E+002   9.94798659E-001   7.49071371E-001   9.94785851E-001
   2.30000000E+002   9.95413095E-001   7.49072280E-001   9.95401600E-001
   2.35000000E+002   9.95974405E-001   7.49073078E-001   9.95964066E-001
   2.40000000E+002   9.96480123E-001   7.49073780E-001   9.96470804E-001
   2.45000000E+002   9.96957040E-001   7.49074399E-001   9.96948622E-001
