# ./jetvheto -in n3lo-fixed-order/H125-LHC13-R04-heft-xmur025-xmuf025-log.fxd -xQ 0.50 -out benchmarks-n3lo-smallR/H125-LHC13-R04-heft-xmur025-xmuf025-xQ050-N3LO+NNLLb.R0-1.0.res -scheme b -order 2 -ptmax 500.01 -fixed_order 3 -small-r -R0 1.0
# process = H    
# collider = pp   
# rts =  13000.000
# M   =    125.000
# muR =     31.250
# muF =     31.250
# Q   =     62.500
# p   =      5.000
# include_c1_squared =   F
# loop_mass  = none
# alphas(MZ) =    0.11800
# alphas(M) =    0.11264
# alphas(muR) =    0.14091
# Rjet =      0.400
# order = NNLL
# pdf name and set = PDF4LHC15_nnlo_mc.LHgrid,    0
# matching scheme = b
# total cross sections [nb] at LO, NLOdiff, NNLOdiff, N3LOdiff =     0.017443    0.024066    0.006043   -0.002471
#----------------------------------------------------------------------
# the lines that follow give the jet-veto efficiencies as a function of pt
#         pt            matched eff      resummed eff     fixed-order eff
   2.00000000E+001   4.85687131E-001   4.94967604E-001   4.81319412E-001
   2.50000000E+001   5.73391824E-001   5.64661766E-001   5.66305030E-001
   3.00000000E+001   6.41338596E-001   6.13093956E-001   6.33178878E-001
   3.50000000E+001   6.94714976E-001   6.46307795E-001   6.86587830E-001
   4.00000000E+001   7.38336035E-001   6.68631028E-001   7.31012867E-001
   4.50000000E+001   7.74943709E-001   6.83183052E-001   7.68707269E-001
   5.00000000E+001   8.04835582E-001   6.92305440E-001   7.99706169E-001
   5.50000000E+001   8.31470310E-001   6.97782592E-001   8.27385152E-001
   6.00000000E+001   8.52895065E-001   7.00932373E-001   8.49675684E-001
   6.50000000E+001   8.68972970E-001   7.02673746E-001   8.66452616E-001
   7.00000000E+001   8.85050644E-001   7.03604534E-001   8.83102826E-001
   7.50000000E+001   8.98698547E-001   7.04087848E-001   8.97196229E-001
   8.00000000E+001   9.09461713E-001   7.04331990E-001   9.08296050E-001
   8.50000000E+001   9.19818020E-001   7.04451132E-001   9.18911192E-001
   9.00000000E+001   9.28820106E-001   7.04506114E-001   9.28110187E-001
   9.50000000E+001   9.34548378E-001   7.04528757E-001   9.33987589E-001
   1.00000000E+002   9.42214108E-001   7.04535510E-001   9.41769179E-001
   1.05000000E+002   9.47337779E-001   7.04534793E-001   9.46981331E-001
   1.10000000E+002   9.53332578E-001   7.04530865E-001   9.53045371E-001
   1.15000000E+002   9.58251211E-001   7.04525842E-001   9.58017944E-001
   1.20000000E+002   9.61683558E-001   7.04520733E-001   9.61492655E-001
   1.25000000E+002   9.64559959E-001   7.04515990E-001   9.64402760E-001
   1.30000000E+002   9.67965107E-001   7.04511779E-001   9.67834879E-001
   1.35000000E+002   9.70564086E-001   7.04508130E-001   9.70455487E-001
   1.40000000E+002   9.73093190E-001   7.04505012E-001   9.73002161E-001
   1.45000000E+002   9.75434398E-001   7.04502365E-001   9.75357662E-001
   1.50000000E+002   9.77331285E-001   7.04500128E-001   9.77266275E-001
   1.55000000E+002   9.79106247E-001   7.04498239E-001   9.79050905E-001
   1.60000000E+002   9.81228412E-001   7.04496643E-001   9.81181098E-001
   1.65000000E+002   9.82509662E-001   7.04495293E-001   9.82469003E-001
   1.70000000E+002   9.83473608E-001   7.04494149E-001   9.83438528E-001
   1.75000000E+002   9.85059533E-001   7.04493176E-001   9.85029158E-001
   1.80000000E+002   9.85835566E-001   7.04492348E-001   9.85809153E-001
   1.85000000E+002   9.87005219E-001   7.04491640E-001   9.86982184E-001
   1.90000000E+002   9.87796843E-001   7.04491034E-001   9.87776674E-001
   1.95000000E+002   9.88794526E-001   7.04490512E-001   9.88776812E-001
   2.00000000E+002   9.89342130E-001   7.04490062E-001   9.89326522E-001
   2.05000000E+002   9.89941436E-001   7.04489673E-001   9.89927640E-001
   2.10000000E+002   9.90489026E-001   7.04489336E-001   9.90476798E-001
   2.15000000E+002   9.91279669E-001   7.04489042E-001   9.91268806E-001
   2.20000000E+002   9.91697983E-001   7.04488786E-001   9.91688302E-001
   2.25000000E+002   9.92325782E-001   7.04488562E-001   9.92317135E-001
   2.30000000E+002   9.92699250E-001   7.04488365E-001   9.92691508E-001
   2.35000000E+002   9.92903730E-001   7.04488193E-001   9.92896781E-001
   2.40000000E+002   9.93415015E-001   7.04488040E-001   9.93408765E-001
   2.45000000E+002   9.93816617E-001   7.04487905E-001   9.93810985E-001
