# ./jetvheto -in n3lo-fixed-order/H125-LHC13-R04-mb-475-mt-1725-xmur200-xmuf100-log.fxd -xQ 0.0625 -out benchmarks-n3lo-smallR/H125-LHC13-R04-mb-475-mt-1725-xmur200-xmuf100-xQ0625-NNLO+NNLLa.R0-0.5.res -scheme a -order 2 -ptmax 500.01 -fixed_order 2 -small-r -loop-mass t+b -R0 0.5
# process = H    
# collider = pp   
# rts =  13000.000
# M   =    125.000
# muR =    250.000
# muF =    125.000
# Q   =      7.812
# p   =      5.000
# include_c1_squared =   F
# loop_mass  = t+b 
# alphas(MZ) =    0.11800
# alphas(M) =    0.11264
# alphas(muR) =    0.10244
# Rjet =      0.400
# order = NNLL
# pdf name and set = PDF4LHC15_nnlo_mc.LHgrid,    0
# matching scheme = a
# total cross sections [nb] at LO, NLOdiff, NNLOdiff, N3LOdiff =     0.010243    0.014468    0.010526    0.005600
#----------------------------------------------------------------------
# the lines that follow give the jet-veto efficiencies as a function of pt
#         pt            matched eff      resummed eff     fixed-order eff
   2.00000000E+001   5.29177788E-001   3.57385558E-001   5.29433236E-001
   2.50000000E+001   6.05699527E-001   3.57978581E-001   6.05818211E-001
   3.00000000E+001   6.64393718E-001   3.58152225E-001   6.64452408E-001
   3.50000000E+001   7.11091906E-001   3.58215003E-001   7.11123136E-001
   4.00000000E+001   7.48899886E-001   3.58241345E-001   7.48917608E-001
   4.50000000E+001   7.80164504E-001   3.58253694E-001   7.80175121E-001
   5.00000000E+001   8.06384118E-001   3.58260000E-001   8.06390774E-001
   5.50000000E+001   8.28533274E-001   3.58263446E-001   8.28537610E-001
   6.00000000E+001   8.47559037E-001   3.58265438E-001   8.47561956E-001
   6.50000000E+001   8.63975757E-001   3.58266644E-001   8.63977779E-001
   7.00000000E+001   8.78192331E-001   3.58267402E-001   8.78193766E-001
   7.50000000E+001   8.90573937E-001   3.58267895E-001   8.90574977E-001
   8.00000000E+001   9.01496598E-001   3.58268226E-001   9.01497366E-001
   8.50000000E+001   9.11049768E-001   3.58268452E-001   9.11050345E-001
   9.00000000E+001   9.19572956E-001   3.58268612E-001   9.19573396E-001
   9.50000000E+001   9.27082411E-001   3.58268726E-001   9.27082751E-001
   1.00000000E+002   9.33770982E-001   3.58268809E-001   9.33771248E-001
   1.05000000E+002   9.39774158E-001   3.58268870E-001   9.39774369E-001
   1.10000000E+002   9.45074489E-001   3.58268916E-001   9.45074658E-001
   1.15000000E+002   9.49884465E-001   3.58268952E-001   9.49884601E-001
   1.20000000E+002   9.54145253E-001   3.58268979E-001   9.54145364E-001
   1.25000000E+002   9.58051671E-001   3.58269000E-001   9.58051762E-001
   1.30000000E+002   9.61564922E-001   3.58269016E-001   9.61564997E-001
   1.35000000E+002   9.64757515E-001   3.58269029E-001   9.64757578E-001
   1.40000000E+002   9.67630863E-001   3.58269040E-001   9.67630916E-001
   1.45000000E+002   9.70280346E-001   3.58269048E-001   9.70280390E-001
   1.50000000E+002   9.72655771E-001   3.58269055E-001   9.72655808E-001
   1.55000000E+002   9.74853485E-001   3.58269061E-001   9.74853517E-001
   1.60000000E+002   9.76836769E-001   3.58269066E-001   9.76836796E-001
   1.65000000E+002   9.78655518E-001   3.58269070E-001   9.78655541E-001
   1.70000000E+002   9.80321331E-001   3.58269073E-001   9.80321351E-001
   1.75000000E+002   9.81831094E-001   3.58269075E-001   9.81831112E-001
   1.80000000E+002   9.83218639E-001   3.58269078E-001   9.83218654E-001
   1.85000000E+002   9.84490138E-001   3.58269080E-001   9.84490151E-001
   1.90000000E+002   9.85659263E-001   3.58269081E-001   9.85659275E-001
   1.95000000E+002   9.86749048E-001   3.58269083E-001   9.86749058E-001
   2.00000000E+002   9.87738592E-001   3.58269084E-001   9.87738601E-001
   2.05000000E+002   9.88656746E-001   3.58269085E-001   9.88656754E-001
   2.10000000E+002   9.89496846E-001   3.58269086E-001   9.89496854E-001
   2.15000000E+002   9.90256043E-001   3.58269087E-001   9.90256049E-001
   2.20000000E+002   9.90970163E-001   3.58269087E-001   9.90970169E-001
   2.25000000E+002   9.91624622E-001   3.58269088E-001   9.91624627E-001
   2.30000000E+002   9.92228267E-001   3.58269088E-001   9.92228272E-001
   2.35000000E+002   9.92790998E-001   3.58269089E-001   9.92791002E-001
   2.40000000E+002   9.93299461E-001   3.58269089E-001   9.93299464E-001
   2.45000000E+002   9.93780638E-001   3.58269090E-001   9.93780642E-001
