# ./jetvheto -in n3lo-fixed-order/H125-LHC13-R04-mb-475-mt-1725-xmur100-xmuf100-log.fxd -xQ 0.333 -out benchmarks-n3lo-smallR/H125-LHC13-R04-mb-475-mt-1725-xmur100-xmuf100-xQ033-N3LO+NNLLa.R0-1.5.res -scheme a -order 2 -ptmax 500.01 -fixed_order 3 -small-r -loop-mass t+b -R0 1.5
# process = H    
# collider = pp   
# rts =  13000.000
# M   =    125.000
# muR =    125.000
# muF =    125.000
# Q   =     41.625
# p   =      5.000
# include_c1_squared =   F
# loop_mass  = t+b 
# alphas(MZ) =    0.11800
# alphas(M) =    0.11264
# alphas(muR) =    0.11264
# Rjet =      0.400
# order = NNLL
# pdf name and set = PDF4LHC15_nnlo_mc.LHgrid,    0
# matching scheme = a
# total cross sections [nb] at LO, NLOdiff, NNLOdiff, N3LOdiff =     0.012292    0.016994    0.010146    0.003834
#----------------------------------------------------------------------
# the lines that follow give the jet-veto efficiencies as a function of pt
#         pt            matched eff      resummed eff     fixed-order eff
   2.00000000E+001   4.48274143E-001   5.08091780E-001   4.51319368E-001
   2.50000000E+001   5.34421398E-001   5.84249796E-001   5.36825698E-001
   3.00000000E+001   6.06925553E-001   6.35608988E-001   6.08858675E-001
   3.50000000E+001   6.63803194E-001   6.68802747E-001   6.64947540E-001
   4.00000000E+001   7.09731552E-001   6.89362724E-001   7.10355778E-001
   4.50000000E+001   7.47128258E-001   7.01725715E-001   7.47456588E-001
   5.00000000E+001   7.78792646E-001   7.09086505E-001   7.78978104E-001
   5.50000000E+001   8.05816325E-001   7.13503482E-001   8.05930820E-001
   6.00000000E+001   8.28644443E-001   7.16205160E-001   8.28717070E-001
   6.50000000E+001   8.49012693E-001   7.17898732E-001   8.49064316E-001
   7.00000000E+001   8.66231295E-001   7.18988403E-001   8.66268025E-001
   7.50000000E+001   8.80505476E-001   7.19707630E-001   8.80530885E-001
   8.00000000E+001   8.93098209E-001   7.20193875E-001   8.93116387E-001
   8.50000000E+001   9.04448441E-001   7.20529962E-001   9.04462211E-001
   9.00000000E+001   9.14183216E-001   7.20767005E-001   9.14193494E-001
   9.50000000E+001   9.23074442E-001   7.20937296E-001   9.23082480E-001
   1.00000000E+002   9.30505106E-001   7.21061698E-001   9.30511231E-001
   1.05000000E+002   9.37196087E-001   7.21153972E-001   9.37200842E-001
   1.10000000E+002   9.43194696E-001   7.21223374E-001   9.43198469E-001
   1.15000000E+002   9.48584616E-001   7.21276243E-001   9.48587632E-001
   1.20000000E+002   9.53235477E-001   7.21316989E-001   9.53237889E-001
   1.25000000E+002   9.57313352E-001   7.21348732E-001   9.57315271E-001
   1.30000000E+002   9.61365221E-001   7.21373706E-001   9.61366818E-001
   1.35000000E+002   9.64935302E-001   7.21393537E-001   9.64936627E-001
   1.40000000E+002   9.67928102E-001   7.21409417E-001   9.67929190E-001
   1.45000000E+002   9.70798528E-001   7.21422235E-001   9.70799436E-001
   1.50000000E+002   9.73231163E-001   7.21432658E-001   9.73231918E-001
   1.55000000E+002   9.75844386E-001   7.21441192E-001   9.75845039E-001
   1.60000000E+002   9.77615104E-001   7.21448223E-001   9.77615642E-001
   1.65000000E+002   9.79523228E-001   7.21454053E-001   9.79523686E-001
   1.70000000E+002   9.81190404E-001   7.21458913E-001   9.81190793E-001
   1.75000000E+002   9.82813127E-001   7.21462987E-001   9.82813463E-001
   1.80000000E+002   9.84292421E-001   7.21466418E-001   9.84292712E-001
   1.85000000E+002   9.85629338E-001   7.21469323E-001   9.85629591E-001
   1.90000000E+002   9.86565820E-001   7.21471793E-001   9.86566035E-001
   1.95000000E+002   9.87769423E-001   7.21473902E-001   9.87769612E-001
   2.00000000E+002   9.88791111E-001   7.21475711E-001   9.88791277E-001
   2.05000000E+002   9.89667260E-001   7.21477267E-001   9.89667405E-001
   2.10000000E+002   9.90458736E-001   7.21478612E-001   9.90458863E-001
   2.15000000E+002   9.91323191E-001   7.21479777E-001   9.91323305E-001
   2.20000000E+002   9.91955492E-001   7.21480791E-001   9.91955592E-001
   2.25000000E+002   9.92619495E-001   7.21481675E-001   9.92619584E-001
   2.30000000E+002   9.93235852E-001   7.21482449E-001   9.93235932E-001
   2.35000000E+002   9.93804732E-001   7.21483128E-001   9.93804803E-001
   2.40000000E+002   9.94192676E-001   7.21483726E-001   9.94192740E-001
   2.45000000E+002   9.94713553E-001   7.21484254E-001   9.94713610E-001
