# ./jetvheto -in n3lo-fixed-order/H125-LHC13-R04-mb-475-mt-1725-xmur200-xmuf200-log.fxd -xQ 0.25 -out benchmarks-n3lo-smallR/H125-LHC13-R04-mb-475-mt-1725-xmur200-xmuf200-xQ025-NNLO+NNLLb.R0-2.0.res -scheme b -order 2 -ptmax 500.01 -fixed_order 2 -small-r -loop-mass t+b -R0 2.0
# process = H    
# collider = pp   
# rts =  13000.000
# M   =    125.000
# muR =    250.000
# muF =    250.000
# Q   =     31.250
# p   =      5.000
# include_c1_squared =   F
# loop_mass  = t+b 
# alphas(MZ) =    0.11800
# alphas(M) =    0.11264
# alphas(muR) =    0.10244
# Rjet =      0.400
# order = NNLL
# pdf name and set = PDF4LHC15_nnlo_mc.LHgrid,    0
# matching scheme = b
# total cross sections [nb] at LO, NLOdiff, NNLOdiff, N3LOdiff =     0.010658    0.014649    0.010464    0.005358
#----------------------------------------------------------------------
# the lines that follow give the jet-veto efficiencies as a function of pt
#         pt            matched eff      resummed eff     fixed-order eff
   2.00000000E+001   3.94355724E-001   5.67789416E-001   3.42914779E-001
   2.50000000E+001   4.77151985E-001   6.38936194E-001   4.51588865E-001
   3.00000000E+001   5.46751642E-001   6.80423020E-001   5.34323891E-001
   3.50000000E+001   6.05908809E-001   7.02867685E-001   5.99878022E-001
   4.00000000E+001   6.55922110E-001   7.14613696E-001   6.52928428E-001
   4.50000000E+001   6.98187713E-001   7.20807597E-001   6.96647108E-001
   5.00000000E+001   7.34037289E-001   7.24177174E-001   7.33209386E-001
   5.50000000E+001   7.64546037E-001   7.26084959E-001   7.64082718E-001
   6.00000000E+001   7.90605447E-001   7.27209925E-001   7.90335720E-001
   6.50000000E+001   8.13155799E-001   7.27898994E-001   8.12993295E-001
   7.00000000E+001   8.32765528E-001   7.28335817E-001   8.32664659E-001
   7.50000000E+001   8.49825117E-001   7.28621347E-001   8.49760719E-001
   8.00000000E+001   8.64843697E-001   7.28813130E-001   8.64801607E-001
   8.50000000E+001   8.77988790E-001   7.28945098E-001   8.77960638E-001
   9.00000000E+001   8.89609334E-001   7.29037886E-001   8.89590152E-001
   9.50000000E+001   8.99887853E-001   7.29104397E-001   8.99874538E-001
   1.00000000E+002   9.08976219E-001   7.29152906E-001   9.08966811E-001
   1.05000000E+002   9.17174718E-001   7.29188846E-001   9.17167984E-001
   1.10000000E+002   9.24474752E-001   7.29215853E-001   9.24469864E-001
   1.15000000E+002   9.31036584E-001   7.29236413E-001   9.31032989E-001
   1.20000000E+002   9.36914412E-001   7.29252250E-001   9.36911738E-001
   1.25000000E+002   9.42196395E-001   7.29264583E-001   9.42194383E-001
   1.30000000E+002   9.46964867E-001   7.29274283E-001   9.46963336E-001
   1.35000000E+002   9.51307892E-001   7.29281984E-001   9.51306719E-001
   1.40000000E+002   9.55233041E-001   7.29288149E-001   9.55232133E-001
   1.45000000E+002   9.58787995E-001   7.29293125E-001   9.58787286E-001
   1.50000000E+002   9.62036134E-001   7.29297170E-001   9.62035576E-001
   1.55000000E+002   9.64985976E-001   7.29300482E-001   9.64985533E-001
   1.60000000E+002   9.67696309E-001   7.29303211E-001   9.67695956E-001
   1.65000000E+002   9.70170855E-001   7.29305473E-001   9.70170571E-001
   1.70000000E+002   9.72424778E-001   7.29307358E-001   9.72424549E-001
   1.75000000E+002   9.74455674E-001   7.29308939E-001   9.74455487E-001
   1.80000000E+002   9.76354865E-001   7.29310270E-001   9.76354712E-001
   1.85000000E+002   9.78097693E-001   7.29311397E-001   9.78097567E-001
   1.90000000E+002   9.79672620E-001   7.29312355E-001   9.79672515E-001
   1.95000000E+002   9.81132636E-001   7.29313174E-001   9.81132549E-001
   2.00000000E+002   9.82463144E-001   7.29313875E-001   9.82463071E-001
   2.05000000E+002   9.83699880E-001   7.29314479E-001   9.83699819E-001
   2.10000000E+002   9.84842464E-001   7.29315000E-001   9.84842413E-001
   2.15000000E+002   9.85894755E-001   7.29315453E-001   9.85894711E-001
   2.20000000E+002   9.86862462E-001   7.29315846E-001   9.86862425E-001
   2.25000000E+002   9.87749926E-001   7.29316189E-001   9.87749895E-001
   2.30000000E+002   9.88584003E-001   7.29316489E-001   9.88583976E-001
   2.35000000E+002   9.89362042E-001   7.29316752E-001   9.89362019E-001
   2.40000000E+002   9.90050296E-001   7.29316984E-001   9.90050275E-001
   2.45000000E+002   9.90709585E-001   7.29317189E-001   9.90709568E-001
