# ./jetvheto -in n3lo-fixed-order/H125-LHC13-R04-mb-0-mt-1725-xmur100-xmuf100-log.fxd -xQ 0.25 -out benchmarks-n3lo-smallR/H125-LHC13-R04-mb-0-mt-1725-xmur100-xmuf100-xQ025-N3LO+NNLLb.R0-0.5.res -scheme b -order 2 -ptmax 500.01 -small-r -fixed_order 3 -loop-mass t -R0 0.5
# process = H    
# collider = pp   
# rts =  13000.000
# M   =    125.000
# muR =    125.000
# muF =    125.000
# Q   =     31.250
# p   =      5.000
# include_c1_squared =   F
# loop_mass  = t   
# alphas(MZ) =    0.11800
# alphas(M) =    0.11264
# alphas(muR) =    0.11264
# Rjet =      0.400
# order = NNLL
# pdf name and set = PDF4LHC15_nnlo_mc.LHgrid,    0
# matching scheme = b
# total cross sections [nb] at LO, NLOdiff, NNLOdiff, N3LOdiff =     0.013801    0.017514    0.010146    0.003834
#----------------------------------------------------------------------
# the lines that follow give the jet-veto efficiencies as a function of pt
#         pt            matched eff      resummed eff     fixed-order eff
   2.00000000E+001   4.38266896E-001   5.42359459E-001   4.21593782E-001
   2.50000000E+001   5.22473885E-001   6.15688582E-001   5.13960990E-001
   3.00000000E+001   5.94968315E-001   6.58815570E-001   5.91015610E-001
   3.50000000E+001   6.52557943E-001   6.82282301E-001   6.50645918E-001
   4.00000000E+001   6.99794337E-001   6.94607840E-001   6.98836983E-001
   4.50000000E+001   7.38433202E-001   7.01121222E-001   7.37928057E-001
   5.00000000E+001   7.71306218E-001   7.04668976E-001   7.71030473E-001
   5.50000000E+001   7.99431238E-001   7.06679062E-001   7.99275639E-001
   6.00000000E+001   8.23151960E-001   7.07864840E-001   8.23059681E-001
   6.50000000E+001   8.44299047E-001   7.08591337E-001   8.44243758E-001
   7.00000000E+001   8.62105484E-001   7.09051960E-001   8.62070819E-001
   7.50000000E+001   8.76948493E-001   7.09353076E-001   8.76925464E-001
   8.00000000E+001   8.89982817E-001   7.09555342E-001   8.89967148E-001
   8.50000000E+001   9.01739211E-001   7.09694530E-001   9.01728487E-001
   9.00000000E+001   9.11755395E-001   7.09792397E-001   9.11747759E-001
   9.50000000E+001   9.20915056E-001   7.09862550E-001   9.20909613E-001
   1.00000000E+002   9.28583593E-001   7.09913717E-001   9.28579537E-001
   1.05000000E+002   9.35457686E-001   7.09951626E-001   9.35454626E-001
   1.10000000E+002   9.41630997E-001   7.09980113E-001   9.41628668E-001
   1.15000000E+002   9.47178934E-001   7.10001799E-001   9.47177133E-001
   1.20000000E+002   9.51998306E-001   7.10018505E-001   9.51996886E-001
   1.25000000E+002   9.56175078E-001   7.10031514E-001   9.56173934E-001
   1.30000000E+002   9.60357211E-001   7.10041746E-001   9.60356305E-001
   1.35000000E+002   9.64009171E-001   7.10049869E-001   9.64008440E-001
   1.40000000E+002   9.67092598E-001   7.10056372E-001   9.67091995E-001
   1.45000000E+002   9.70035397E-001   7.10061621E-001   9.70034899E-001
   1.50000000E+002   9.72527914E-001   7.10065888E-001   9.72527497E-001
   1.55000000E+002   9.75212798E-001   7.10069381E-001   9.75212455E-001
   1.60000000E+002   9.77041404E-001   7.10072259E-001   9.77041107E-001
   1.65000000E+002   9.78998302E-001   7.10074645E-001   9.78998050E-001
   1.70000000E+002   9.80709813E-001   7.10076634E-001   9.80709596E-001
   1.75000000E+002   9.82370809E-001   7.10078302E-001   9.82370623E-001
   1.80000000E+002   9.83895357E-001   7.10079706E-001   9.83895197E-001
   1.85000000E+002   9.85264661E-001   7.10080895E-001   9.85264523E-001
   1.90000000E+002   9.86225589E-001   7.10081906E-001   9.86225466E-001
   1.95000000E+002   9.87456603E-001   7.10082769E-001   9.87456496E-001
   2.00000000E+002   9.88501199E-001   7.10083509E-001   9.88501106E-001
   2.05000000E+002   9.89400049E-001   7.10084146E-001   9.89399966E-001
   2.10000000E+002   9.90204189E-001   7.10084696E-001   9.90204115E-001
   2.15000000E+002   9.91095784E-001   7.10085173E-001   9.91095719E-001
   2.20000000E+002   9.91741864E-001   7.10085587E-001   9.91741805E-001
   2.25000000E+002   9.92422362E-001   7.10085949E-001   9.92422310E-001
   2.30000000E+002   9.93056648E-001   7.10086266E-001   9.93056602E-001
   2.35000000E+002   9.93643544E-001   7.10086544E-001   9.93643503E-001
   2.40000000E+002   9.94041803E-001   7.10086788E-001   9.94041766E-001
   2.45000000E+002   9.94575427E-001   7.10087004E-001   9.94575393E-001
