# ./jetvheto -in n3lo-fixed-order/H125-LHC13-R04-mb-475-mt-1725-xmur025-xmuf050-log.fxd -xQ 0.25 -out benchmarks-n3lo-smallR/H125-LHC13-R04-mb-475-mt-1725-xmur025-xmuf050-xQ025-NNLO+NNLLa.R0-0.5.res -scheme a -order 2 -ptmax 500.01 -fixed_order 2 -small-r -loop-mass t+b -R0 0.5
# process = H    
# collider = pp   
# rts =  13000.000
# M   =    125.000
# muR =     31.250
# muF =     62.500
# Q   =     31.250
# p   =      5.000
# include_c1_squared =   F
# loop_mass  = t+b 
# alphas(MZ) =    0.11800
# alphas(M) =    0.11264
# alphas(muR) =    0.14091
# Rjet =      0.400
# order = NNLL
# pdf name and set = PDF4LHC15_nnlo_mc.LHgrid,    0
# matching scheme = a
# total cross sections [nb] at LO, NLOdiff, NNLOdiff, N3LOdiff =     0.017683    0.024805    0.005009   -0.002663
#----------------------------------------------------------------------
# the lines that follow give the jet-veto efficiencies as a function of pt
#         pt            matched eff      resummed eff     fixed-order eff
   2.00000000E+001   4.24748872E-001   4.23669024E-001   4.14085672E-001
   2.50000000E+001   5.11284848E-001   4.82919680E-001   5.05029093E-001
   3.00000000E+001   5.81487994E-001   5.17899652E-001   5.77905321E-001
   3.50000000E+001   6.39054263E-001   5.36990079E-001   6.37010945E-001
   4.00000000E+001   6.86744709E-001   5.47036100E-001   6.85569312E-001
   4.50000000E+001   7.26892131E-001   5.52350635E-001   7.26196393E-001
   5.00000000E+001   7.60881768E-001   5.55247225E-001   7.60456629E-001
   5.50000000E+001   7.89739311E-001   5.56888978E-001   7.89469884E-001
   6.00000000E+001   8.14458075E-001   5.57857679E-001   8.14281031E-001
   6.50000000E+001   8.35759258E-001   5.58451258E-001   8.35639279E-001
   7.00000000E+001   8.54335418E-001   5.58827636E-001   8.54251825E-001
   7.50000000E+001   8.70335172E-001   5.59073694E-001   8.70275272E-001
   8.00000000E+001   8.84405706E-001   5.59238981E-001   8.84361842E-001
   8.50000000E+001   8.96798989E-001   5.59352726E-001   8.96766205E-001
   9.00000000E+001   9.07662373E-001   5.59432704E-001   9.07637475E-001
   9.50000000E+001   9.17161708E-001   5.59490035E-001   9.17142453E-001
   1.00000000E+002   9.25647944E-001   5.59531850E-001   9.25632859E-001
   1.05000000E+002   9.33123482E-001   5.59562830E-001   9.33111490E-001
   1.10000000E+002   9.39771332E-001   5.59586111E-001   9.39761709E-001
   1.15000000E+002   9.45720209E-001   5.59603834E-001   9.45712400E-001
   1.20000000E+002   9.51028187E-001   5.59617487E-001   9.51021795E-001
   1.25000000E+002   9.55832138E-001   5.59628118E-001   9.55826863E-001
   1.30000000E+002   9.60066793E-001   5.59636480E-001   9.60062402E-001
   1.35000000E+002   9.63901796E-001   5.59643119E-001   9.63898119E-001
   1.40000000E+002   9.67370733E-001   5.59648434E-001   9.67367633E-001
   1.45000000E+002   9.70471801E-001   5.59652723E-001   9.70469170E-001
   1.50000000E+002   9.73310696E-001   5.59656210E-001   9.73308453E-001
   1.55000000E+002   9.75862402E-001   5.59659065E-001   9.75860478E-001
   1.60000000E+002   9.78167442E-001   5.59661417E-001   9.78165785E-001
   1.65000000E+002   9.80234319E-001   5.59663367E-001   9.80232885E-001
   1.70000000E+002   9.82120749E-001   5.59664993E-001   9.82119504E-001
   1.75000000E+002   9.83863746E-001   5.59666355E-001   9.83862660E-001
   1.80000000E+002   9.85401357E-001   5.59667503E-001   9.85400406E-001
   1.85000000E+002   9.86826312E-001   5.59668475E-001   9.86825476E-001
   1.90000000E+002   9.88123947E-001   5.59669301E-001   9.88123211E-001
   1.95000000E+002   9.89292676E-001   5.59670006E-001   9.89292025E-001
   2.00000000E+002   9.90353199E-001   5.59670611E-001   9.90352622E-001
   2.05000000E+002   9.91332558E-001   5.59671131E-001   9.91332044E-001
   2.10000000E+002   9.92193438E-001   5.59671581E-001   9.92192981E-001
   2.15000000E+002   9.93015951E-001   5.59671971E-001   9.93015542E-001
   2.20000000E+002   9.93767043E-001   5.59672310E-001   9.93766676E-001
   2.25000000E+002   9.94410027E-001   5.59672605E-001   9.94409698E-001
   2.30000000E+002   9.95059738E-001   5.59672864E-001   9.95059442E-001
   2.35000000E+002   9.95608250E-001   5.59673091E-001   9.95607983E-001
   2.40000000E+002   9.96122040E-001   5.59673291E-001   9.96121799E-001
   2.45000000E+002   9.96585171E-001   5.59673468E-001   9.96584953E-001
