# ./jetvheto -in n3lo-fixed-order/H125-LHC13-R04-mb-0-mt-1725-xmur200-xmuf100-log.fxd -xQ 0.5 -out benchmarks-n3lo-smallR/H125-LHC13-R04-mb-0-mt-1725-xmur200-xmuf100-xQ050-NNLO+NNLLb.R0-1.5.res -scheme b -order 2 -ptmax 500.01 -small-r -fixed_order 2 -loop-mass t -R0 1.5
# process = H    
# collider = pp   
# rts =  13000.000
# M   =    125.000
# muR =    250.000
# muF =    125.000
# Q   =     62.500
# p   =      5.000
# include_c1_squared =   F
# loop_mass  = t   
# alphas(MZ) =    0.11800
# alphas(M) =    0.11264
# alphas(muR) =    0.10244
# Rjet =      0.400
# order = NNLL
# pdf name and set = PDF4LHC15_nnlo_mc.LHgrid,    0
# matching scheme = b
# total cross sections [nb] at LO, NLOdiff, NNLOdiff, N3LOdiff =     0.011501    0.015066    0.010526    0.005600
#----------------------------------------------------------------------
# the lines that follow give the jet-veto efficiencies as a function of pt
#         pt            matched eff      resummed eff     fixed-order eff
   2.00000000E+001   4.33631817E-001   5.38230550E-001   3.67201827E-001
   2.50000000E+001   5.17688203E-001   6.24290122E-001   4.73161072E-001
   3.00000000E+001   5.85351293E-001   6.85769582E-001   5.53722917E-001
   3.50000000E+001   6.40638187E-001   7.29172522E-001   6.17253656E-001
   4.00000000E+001   6.86285037E-001   7.59275443E-001   6.68576569E-001
   4.50000000E+001   7.24164089E-001   7.79658366E-001   7.10591480E-001
   5.00000000E+001   7.56108491E-001   7.93071860E-001   7.45672623E-001
   5.50000000E+001   7.83234282E-001   8.01645281E-001   7.75224424E-001
   6.00000000E+001   8.06591902E-001   8.06993333E-001   8.00466992E-001
   6.50000000E+001   8.26840262E-001   8.10280111E-001   8.22168588E-001
   7.00000000E+001   8.44400857E-001   8.12293532E-001   8.40838970E-001
   7.50000000E+001   8.59940556E-001   8.13537009E-001   8.57218355E-001
   8.00000000E+001   8.73660037E-001   8.14318354E-001   8.71570191E-001
   8.50000000E+001   8.85739760E-001   8.14820748E-001   8.84125319E-001
   9.00000000E+001   8.96485922E-001   8.15152272E-001   8.95229677E-001
   9.50000000E+001   9.06006721E-001   8.15376903E-001   9.05021342E-001
   1.00000000E+002   9.14550742E-001   8.15533020E-001   9.13771358E-001
   1.05000000E+002   9.22199063E-001   8.15644099E-001   9.21577501E-001
   1.10000000E+002   9.28982267E-001   8.15724830E-001   9.28482563E-001
   1.15000000E+002   9.35156013E-001   8.15784632E-001   9.34751096E-001
   1.20000000E+002   9.40684427E-001   8.15829684E-001   9.40353848E-001
   1.25000000E+002   9.45691987E-001   8.15864139E-001   9.45420170E-001
   1.30000000E+002   9.50237780E-001   8.15890842E-001   9.50012754E-001
   1.35000000E+002   9.54326778E-001   8.15911788E-001   9.54139308E-001
   1.40000000E+002   9.58049544E-001   8.15928395E-001   9.57892400E-001
   1.45000000E+002   9.61461787E-001   8.15941690E-001   9.61329318E-001
   1.50000000E+002   9.64524638E-001   8.15952427E-001   9.64412364E-001
   1.55000000E+002   9.67361051E-001   8.15961170E-001   9.67265406E-001
   1.60000000E+002   9.69949745E-001   8.15968340E-001   9.69867876E-001
   1.65000000E+002   9.72300124E-001   8.15974262E-001   9.72229728E-001
   1.70000000E+002   9.74458434E-001   8.15979184E-001   9.74397644E-001
   1.75000000E+002   9.76405150E-001   8.15983297E-001   9.76352441E-001
   1.80000000E+002   9.78210549E-001   8.15986755E-001   9.78164670E-001
   1.85000000E+002   9.79853174E-001   8.15989676E-001   9.79813093E-001
   1.90000000E+002   9.81374892E-001   8.15992156E-001   9.81339755E-001
   1.95000000E+002   9.82779259E-001   8.15994270E-001   9.82748354E-001
   2.00000000E+002   9.84056303E-001   8.15996081E-001   9.84029035E-001
   2.05000000E+002   9.85248213E-001   8.15997637E-001   9.85224081E-001
   2.10000000E+002   9.86327617E-001   8.15998981E-001   9.86306199E-001
   2.15000000E+002   9.87316772E-001   8.16000145E-001   9.87297711E-001
   2.20000000E+002   9.88241623E-001   8.16001156E-001   9.88224615E-001
   2.25000000E+002   9.89089572E-001   8.16002038E-001   9.89074358E-001
   2.30000000E+002   9.89875529E-001   8.16002810E-001   9.89861887E-001
   2.35000000E+002   9.90610591E-001   8.16003486E-001   9.90598331E-001
   2.40000000E+002   9.91274091E-001   8.16004082E-001   9.91263048E-001
   2.45000000E+002   9.91896580E-001   8.16004607E-001   9.91886612E-001
