# ./jetvheto -in n3lo-fixed-order/H125-LHC13-R04-mb-475-mt-1725-xmur100-xmuf050-log.fxd -xQ 0.5 -out benchmarks-n3lo-smallR/H125-LHC13-R04-mb-475-mt-1725-xmur100-xmuf050-xQ050-NNLO+NNLLa.R0-0.5.res -scheme a -order 2 -ptmax 500.01 -fixed_order 2 -small-r -loop-mass t+b -R0 0.5
# process = H    
# collider = pp   
# rts =  13000.000
# M   =    125.000
# muR =    125.000
# muF =     62.500
# Q   =     62.500
# p   =      5.000
# include_c1_squared =   F
# loop_mass  = t+b 
# alphas(MZ) =    0.11800
# alphas(M) =    0.11264
# alphas(muR) =    0.11264
# Rjet =      0.400
# order = NNLL
# pdf name and set = PDF4LHC15_nnlo_mc.LHgrid,    0
# matching scheme = a
# total cross sections [nb] at LO, NLOdiff, NNLOdiff, N3LOdiff =     0.011575    0.016866    0.010424    0.004163
#----------------------------------------------------------------------
# the lines that follow give the jet-veto efficiencies as a function of pt
#         pt            matched eff      resummed eff     fixed-order eff
   2.00000000E+001   4.55373522E-001   4.83140424E-001   4.89064583E-001
   2.50000000E+001   5.46195396E-001   5.65065463E-001   5.70034720E-001
   3.00000000E+001   6.18049121E-001   6.23923023E-001   6.32942870E-001
   3.50000000E+001   6.75270659E-001   6.65690503E-001   6.83258386E-001
   4.00000000E+001   7.21040344E-001   6.94832829E-001   7.24239561E-001
   4.50000000E+001   7.58240788E-001   7.14696784E-001   7.58461479E-001
   5.00000000E+001   7.88638612E-001   7.27871065E-001   7.87253375E-001
   5.50000000E+001   8.13724938E-001   7.36375488E-001   8.11661801E-001
   6.00000000E+001   8.34796141E-001   7.41747928E-001   8.32610002E-001
   6.50000000E+001   8.52699248E-001   7.45099002E-001   8.50676857E-001
   7.00000000E+001   8.68201743E-001   7.47186316E-001   8.66457347E-001
   7.50000000E+001   8.81600984E-001   7.48498645E-001   8.80153278E-001
   8.00000000E+001   8.93408950E-001   7.49338325E-001   8.92232619E-001
   8.50000000E+001   9.03878335E-001   7.49887736E-001   9.02932418E-001
   9.00000000E+001   9.13080900E-001   7.50256260E-001   9.12323320E-001
   9.50000000E+001   9.21239805E-001   7.50509671E-001   9.20632683E-001
   1.00000000E+002   9.28562061E-001   7.50688072E-001   9.28074069E-001
   1.05000000E+002   9.35110208E-001   7.50816410E-001   9.34716121E-001
   1.10000000E+002   9.40941924E-001   7.50910552E-001   9.40622008E-001
   1.15000000E+002   9.46222392E-001   7.50980824E-001   9.45961129E-001
   1.20000000E+002   9.50959119E-001   7.51034101E-001   9.50744483E-001
   1.25000000E+002   9.55277798E-001   7.51075058E-001   9.55100393E-001
   1.30000000E+002   9.59137829E-001   7.51106938E-001   9.58990329E-001
   1.35000000E+002   9.62633414E-001   7.51132031E-001   9.62510083E-001
   1.40000000E+002   9.65829519E-001   7.51151984E-001   9.65725821E-001
   1.45000000E+002   9.68721602E-001   7.51167996E-001   9.68633949E-001
   1.50000000E+002   9.71372354E-001   7.51180953E-001   9.71297891E-001
   1.55000000E+002   9.73781102E-001   7.51191520E-001   9.73717539E-001
   1.60000000E+002   9.75971951E-001   7.51200199E-001   9.75917445E-001
   1.65000000E+002   9.77960359E-001   7.51207375E-001   9.77913415E-001
   1.70000000E+002   9.79772380E-001   7.51213343E-001   9.79731786E-001
   1.75000000E+002   9.81452944E-001   7.51218337E-001   9.81417700E-001
   1.80000000E+002   9.82965889E-001   7.51222537E-001   9.82935177E-001
   1.85000000E+002   9.84374339E-001   7.51226087E-001   9.84347479E-001
   1.90000000E+002   9.85657824E-001   7.51229102E-001   9.85634255E-001
   1.95000000E+002   9.86832666E-001   7.51231674E-001   9.86811918E-001
   2.00000000E+002   9.87906634E-001   7.51233877E-001   9.87888312E-001
   2.05000000E+002   9.88897852E-001   7.51235772E-001   9.88881626E-001
   2.10000000E+002   9.89789519E-001   7.51237408E-001   9.89775108E-001
   2.15000000E+002   9.90634541E-001   7.51238826E-001   9.90621707E-001
   2.20000000E+002   9.91411847E-001   7.51240058E-001   9.91400389E-001
   2.25000000E+002   9.92104002E-001   7.51241132E-001   9.92093747E-001
   2.30000000E+002   9.92769885E-001   7.51242072E-001   9.92760685E-001
   2.35000000E+002   9.93359468E-001   7.51242897E-001   9.93351196E-001
   2.40000000E+002   9.93912424E-001   7.51243623E-001   9.93904970E-001
   2.45000000E+002   9.94411205E-001   7.51244263E-001   9.94404475E-001
