# ./jetvheto -in n3lo-fixed-order/H125-LHC13-R04-mb-475-mt-1725-xmur050-xmuf025-log.fxd -xQ 0.25 -out benchmarks-n3lo-smallR/H125-LHC13-R04-mb-475-mt-1725-xmur050-xmuf025-xQ025-NNLO+NNLLb.R0-1.0.res -scheme b -order 2 -ptmax 500.01 -fixed_order 2 -small-r -loop-mass t+b -R0 1.0
# process = H    
# collider = pp   
# rts =  13000.000
# M   =    125.000
# muR =     62.500
# muF =     31.250
# Q   =     31.250
# p   =      5.000
# include_c1_squared =   F
# loop_mass  = t+b 
# alphas(MZ) =    0.11800
# alphas(M) =    0.11264
# alphas(muR) =    0.12516
# Rjet =      0.400
# order = NNLL
# pdf name and set = PDF4LHC15_nnlo_mc.LHgrid,    0
# matching scheme = b
# total cross sections [nb] at LO, NLOdiff, NNLOdiff, N3LOdiff =     0.012926    0.020318    0.009723    0.001827
#----------------------------------------------------------------------
# the lines that follow give the jet-veto efficiencies as a function of pt
#         pt            matched eff      resummed eff     fixed-order eff
   2.00000000E+001   3.46435688E-001   4.62573291E-001   2.88336474E-001
   2.50000000E+001   4.28333944E-001   5.30603899E-001   3.97742417E-001
   3.00000000E+001   4.99555536E-001   5.71191949E-001   4.83975232E-001
   3.50000000E+001   5.62012923E-001   5.93499069E-001   5.54141575E-001
   4.00000000E+001   6.15966162E-001   6.05288776E-001   6.11905414E-001
   4.50000000E+001   6.62381559E-001   6.11541861E-001   6.60208815E-001
   5.00000000E+001   7.02241256E-001   6.14954974E-001   7.01026371E-001
   5.50000000E+001   7.36401910E-001   6.16891103E-001   7.35693044E-001
   6.00000000E+001   7.65941323E-001   6.18034060E-001   7.65510942E-001
   6.50000000E+001   7.91592334E-001   6.18734623E-001   7.91321316E-001
   7.00000000E+001   8.14117206E-001   6.19178922E-001   8.13940958E-001
   7.50000000E+001   8.33547848E-001   6.19469417E-001   8.33429617E-001
   8.00000000E+001   8.50832463E-001   6.19664570E-001   8.50751155E-001
   8.50000000E+001   8.66127429E-001   6.19798875E-001   8.66070164E-001
   9.00000000E+001   8.79615320E-001   6.19893313E-001   8.79574110E-001
   9.50000000E+001   8.91454222E-001   6.19961011E-001   8.91423954E-001
   1.00000000E+002   9.02018091E-001   6.20010389E-001   9.01995478E-001
   1.05000000E+002   9.11528062E-001   6.20046973E-001   9.11510900E-001
   1.10000000E+002   9.19979596E-001   6.20074465E-001   9.19966378E-001
   1.15000000E+002   9.27615793E-001   6.20095394E-001   9.27605481E-001
   1.20000000E+002   9.34508284E-001   6.20111516E-001   9.34500136E-001
   1.25000000E+002   9.40652627E-001   6.20124071E-001   9.40646112E-001
   1.30000000E+002   9.46223086E-001   6.20133946E-001   9.46217827E-001
   1.35000000E+002   9.51236738E-001   6.20141785E-001   9.51232453E-001
   1.40000000E+002   9.55755027E-001   6.20148062E-001   9.55751503E-001
   1.45000000E+002   9.59931277E-001   6.20153127E-001   9.59928357E-001
   1.50000000E+002   9.63680049E-001   6.20157245E-001   9.63677611E-001
   1.55000000E+002   9.67088701E-001   6.20160616E-001   9.67086651E-001
   1.60000000E+002   9.70210528E-001   6.20163394E-001   9.70208793E-001
   1.65000000E+002   9.73035768E-001   6.20165697E-001   9.73034291E-001
   1.70000000E+002   9.75595694E-001   6.20167617E-001   9.75594429E-001
   1.75000000E+002   9.77926110E-001   6.20169226E-001   9.77925021E-001
   1.80000000E+002   9.80041751E-001   6.20170581E-001   9.80040810E-001
   1.85000000E+002   9.81961925E-001   6.20171729E-001   9.81961107E-001
   1.90000000E+002   9.83745384E-001   6.20172704E-001   9.83744670E-001
   1.95000000E+002   9.85379077E-001   6.20173537E-001   9.85378453E-001
   2.00000000E+002   9.86862691E-001   6.20174251E-001   9.86862141E-001
   2.05000000E+002   9.88234428E-001   6.20174866E-001   9.88233944E-001
   2.10000000E+002   9.89490571E-001   6.20175397E-001   9.89490142E-001
   2.15000000E+002   9.90598761E-001   6.20175857E-001   9.90598380E-001
   2.20000000E+002   9.91647038E-001   6.20176257E-001   9.91646698E-001
   2.25000000E+002   9.92599701E-001   6.20176607E-001   9.92599398E-001
   2.30000000E+002   9.93457170E-001   6.20176912E-001   9.93456899E-001
   2.35000000E+002   9.94258088E-001   6.20177181E-001   9.94257844E-001
   2.40000000E+002   9.94969207E-001   6.20177417E-001   9.94968988E-001
   2.45000000E+002   9.95619088E-001   6.20177625E-001   9.95618890E-001
