# ./jetvheto -in n3lo-fixed-order/H125-LHC13-R04-heft-xmur200-xmuf100-log.fxd -xQ 0.50 -out benchmarks-n3lo-smallR/H125-LHC13-R04-heft-xmur200-xmuf100-xQ050-NNLO+NNLLb.R0-1.0.res -scheme b -order 2 -ptmax 500.01 -fixed_order 2 -small-r -R0 1.0
# process = H    
# collider = pp   
# rts =  13000.000
# M   =    125.000
# muR =    250.000
# muF =    125.000
# Q   =     62.500
# p   =      5.000
# include_c1_squared =   F
# loop_mass  = none
# alphas(MZ) =    0.11800
# alphas(M) =    0.11264
# alphas(muR) =    0.10244
# Rjet =      0.400
# order = NNLL
# pdf name and set = PDF4LHC15_nnlo_mc.LHgrid,    0
# matching scheme = b
# total cross sections [nb] at LO, NLOdiff, NNLOdiff, N3LOdiff =     0.010706    0.014429    0.010526    0.005600
#----------------------------------------------------------------------
# the lines that follow give the jet-veto efficiencies as a function of pt
#         pt            matched eff      resummed eff     fixed-order eff
   2.00000000E+001   4.17227221E-001   5.25168658E-001   3.48106183E-001
   2.50000000E+001   5.01282725E-001   6.10344522E-001   4.55588041E-001
   3.00000000E+001   5.69558093E-001   6.71274547E-001   5.37570282E-001
   3.50000000E+001   6.25422589E-001   7.14340420E-001   6.02074156E-001
   4.00000000E+001   6.71792364E-001   7.44246527E-001   6.54294727E-001
   4.50000000E+001   7.10475358E-001   7.64525399E-001   6.97166553E-001
   5.00000000E+001   7.43175370E-001   7.77894089E-001   7.32995597E-001
   5.50000000E+001   7.71008609E-001   7.86457819E-001   7.63221162E-001
   6.00000000E+001   7.95006388E-001   7.91814438E-001   7.89063600E-001
   6.50000000E+001   8.15874127E-001   7.95117246E-001   8.11346410E-001
   7.00000000E+001   8.34008246E-001   7.97148065E-001   8.30558028E-001
   7.50000000E+001   8.49986102E-001   7.98407409E-001   8.47350188E-001
   8.00000000E+001   8.64079673E-001   7.99202071E-001   8.62056499E-001
   8.50000000E+001   8.76511124E-001   7.99715162E-001   8.74948311E-001
   9.00000000E+001   8.87632071E-001   8.00055081E-001   8.86415948E-001
   9.50000000E+001   8.97480397E-001   8.00286226E-001   8.96526436E-001
   1.00000000E+002   9.06285658E-001   8.00447379E-001   9.05531112E-001
   1.05000000E+002   9.14177940E-001   8.00562354E-001   9.13576167E-001
   1.10000000E+002   9.21229940E-001   8.00646111E-001   9.20746096E-001
   1.15000000E+002   9.27616416E-001   8.00708273E-001   9.27224331E-001
   1.20000000E+002   9.33358703E-001   8.00755179E-001   9.33038574E-001
   1.25000000E+002   9.38544863E-001   8.00791097E-001   9.38281626E-001
   1.30000000E+002   9.43232731E-001   8.00818967E-001   9.43014804E-001
   1.35000000E+002   9.47511406E-001   8.00840846E-001   9.47329832E-001
   1.40000000E+002   9.51354293E-001   8.00858206E-001   9.51202088E-001
   1.45000000E+002   9.54908366E-001   8.00872113E-001   9.54780054E-001
   1.50000000E+002   9.58094349E-001   8.00883350E-001   9.57985592E-001
   1.55000000E+002   9.61020660E-001   8.00892503E-001   9.60928009E-001
   1.60000000E+002   9.63717200E-001   8.00900013E-001   9.63637891E-001
   1.65000000E+002   9.66169076E-001   8.00906217E-001   9.66100877E-001
   1.70000000E+002   9.68443349E-001   8.00911374E-001   9.68384452E-001
   1.75000000E+002   9.70506823E-001   8.00915686E-001   9.70455751E-001
   1.80000000E+002   9.72426999E-001   8.00919310E-001   9.72382541E-001
   1.85000000E+002   9.74178480E-001   8.00922373E-001   9.74139638E-001
   1.90000000E+002   9.75797893E-001   8.00924973E-001   9.75763839E-001
   1.95000000E+002   9.77319199E-001   8.00927190E-001   9.77289243E-001
   2.00000000E+002   9.78716431E-001   8.00929089E-001   9.78689998E-001
   2.05000000E+002   9.80013826E-001   8.00930722E-001   9.79990430E-001
   2.10000000E+002   9.81207986E-001   8.00932131E-001   9.81187220E-001
   2.15000000E+002   9.82304445E-001   8.00933352E-001   9.82285962E-001
   2.20000000E+002   9.83334291E-001   8.00934413E-001   9.83317796E-001
   2.25000000E+002   9.84288105E-001   8.00935339E-001   9.84273349E-001
   2.30000000E+002   9.85180091E-001   8.00936148E-001   9.85166858E-001
   2.35000000E+002   9.86028373E-001   8.00936858E-001   9.86016478E-001
   2.40000000E+002   9.86800651E-001   8.00937483E-001   9.86789936E-001
   2.45000000E+002   9.87529065E-001   8.00938034E-001   9.87519392E-001
