# ./jetvheto -in n3lo-fixed-order/H125-LHC13-R04-mb-475-mt-1725-xmur025-xmuf050-log.fxd -xQ 0.25 -out benchmarks-n3lo-smallR/H125-LHC13-R04-mb-475-mt-1725-xmur025-xmuf050-xQ025-N3LO+NNLLa.R0-1.5.res -scheme a -order 2 -ptmax 500.01 -fixed_order 3 -small-r -loop-mass t+b -R0 1.5
# process = H    
# collider = pp   
# rts =  13000.000
# M   =    125.000
# muR =     31.250
# muF =     62.500
# Q   =     31.250
# p   =      5.000
# include_c1_squared =   F
# loop_mass  = t+b 
# alphas(MZ) =    0.11800
# alphas(M) =    0.11264
# alphas(muR) =    0.14091
# Rjet =      0.400
# order = NNLL
# pdf name and set = PDF4LHC15_nnlo_mc.LHgrid,    0
# matching scheme = a
# total cross sections [nb] at LO, NLOdiff, NNLOdiff, N3LOdiff =     0.017683    0.024805    0.005009   -0.002663
#----------------------------------------------------------------------
# the lines that follow give the jet-veto efficiencies as a function of pt
#         pt            matched eff      resummed eff     fixed-order eff
   2.00000000E+001   4.46234732E-001   4.26905630E-001   4.46607809E-001
   2.50000000E+001   5.30420654E-001   4.84684358E-001   5.29091423E-001
   3.00000000E+001   6.05896272E-001   5.18832701E-001   6.04995778E-001
   3.50000000E+001   6.65821122E-001   5.37487091E-001   6.65141973E-001
   4.00000000E+001   7.10783671E-001   5.47309895E-001   7.10209715E-001
   4.50000000E+001   7.52060114E-001   5.52508295E-001   7.51667982E-001
   5.00000000E+001   7.84143804E-001   5.55342193E-001   7.83854807E-001
   5.50000000E+001   8.12693652E-001   5.56948609E-001   8.12489362E-001
   6.00000000E+001   8.35541828E-001   5.57896530E-001   8.35391522E-001
   6.50000000E+001   8.57747084E-001   5.58477399E-001   8.57640710E-001
   7.00000000E+001   8.73553343E-001   5.58845729E-001   8.73471931E-001
   7.50000000E+001   8.88088884E-001   5.59086530E-001   8.88027309E-001
   8.00000000E+001   9.01503821E-001   5.59248287E-001   9.01457188E-001
   8.50000000E+001   9.13498750E-001   5.59359603E-001   9.13463104E-001
   9.00000000E+001   9.24034060E-001   5.59437875E-001   9.24006495E-001
   9.50000000E+001   9.31913781E-001   5.59493982E-001   9.31891873E-001
   1.00000000E+002   9.39776732E-001   5.59534905E-001   9.39759362E-001
   1.05000000E+002   9.45615481E-001   5.59565225E-001   9.45601410E-001
   1.10000000E+002   9.51068236E-001   5.59588009E-001   9.51056796E-001
   1.15000000E+002   9.56489097E-001   5.59605354E-001   9.56479795E-001
   1.20000000E+002   9.61351147E-001   5.59618715E-001   9.61343529E-001
   1.25000000E+002   9.65110885E-001   5.59629120E-001   9.65104556E-001
   1.30000000E+002   9.68314866E-001   5.59637304E-001   9.68309576E-001
   1.35000000E+002   9.71779655E-001   5.59643801E-001   9.71775236E-001
   1.40000000E+002   9.74935979E-001   5.59649002E-001   9.74932267E-001
   1.45000000E+002   9.77562784E-001   5.59653200E-001   9.77559644E-001
   1.50000000E+002   9.79295182E-001   5.59656613E-001   9.79292492E-001
   1.55000000E+002   9.81792681E-001   5.59659407E-001   9.81790391E-001
   1.60000000E+002   9.84001501E-001   5.59661709E-001   9.83999542E-001
   1.65000000E+002   9.84857168E-001   5.59663617E-001   9.84855464E-001
   1.70000000E+002   9.86529961E-001   5.59665208E-001   9.86528488E-001
   1.75000000E+002   9.88127128E-001   5.59666542E-001   9.88125850E-001
   1.80000000E+002   9.89168421E-001   5.59667665E-001   9.89167305E-001
   1.85000000E+002   9.90121891E-001   5.59668616E-001   9.90120912E-001
   1.90000000E+002   9.91214384E-001   5.59669424E-001   9.91213525E-001
   1.95000000E+002   9.92235415E-001   5.59670115E-001   9.92234660E-001
   2.00000000E+002   9.93106811E-001   5.59670707E-001   9.93106144E-001
   2.05000000E+002   9.93692786E-001   5.59671216E-001   9.93692194E-001
   2.10000000E+002   9.94364334E-001   5.59671656E-001   9.94363808E-001
   2.15000000E+002   9.94771766E-001   5.59672037E-001   9.94771297E-001
   2.20000000E+002   9.95686996E-001   5.59672369E-001   9.95686578E-001
   2.25000000E+002   9.95943176E-001   5.59672658E-001   9.95942802E-001
   2.30000000E+002   9.96379750E-001   5.59672912E-001   9.96379414E-001
   2.35000000E+002   9.96640743E-001   5.59673134E-001   9.96640440E-001
   2.40000000E+002   9.96984294E-001   5.59673330E-001   9.96984021E-001
   2.45000000E+002   9.97486436E-001   5.59673502E-001   9.97486190E-001
