# ./jetvheto -in n3lo-fixed-order/H125-LHC13-R04-mb-475-mt-1725-xmur050-xmuf050-log.fxd -xQ 0.5 -out benchmarks-n3lo-smallR/H125-LHC13-R04-mb-475-mt-1725-xmur050-xmuf050-xQ050-N3LO+NNLLb.R0-2.0.res -scheme b -order 2 -ptmax 500.01 -fixed_order 3 -small-r -loop-mass t+b -R0 2.0
# process = H    
# collider = pp   
# rts =  13000.000
# M   =    125.000
# muR =     62.500
# muF =     62.500
# Q   =     62.500
# p   =      5.000
# include_c1_squared =   F
# loop_mass  = t+b 
# alphas(MZ) =    0.11800
# alphas(M) =    0.11264
# alphas(muR) =    0.12516
# Rjet =      0.400
# order = NNLL
# pdf name and set = PDF4LHC15_nnlo_mc.LHgrid,    0
# matching scheme = b
# total cross sections [nb] at LO, NLOdiff, NNLOdiff, N3LOdiff =     0.014147    0.020254    0.008998    0.001413
#----------------------------------------------------------------------
# the lines that follow give the jet-veto efficiencies as a function of pt
#         pt            matched eff      resummed eff     fixed-order eff
   2.00000000E+001   4.51357153E-001   4.91401473E-001   4.22880362E-001
   2.50000000E+001   5.34288823E-001   5.62160197E-001   5.10871357E-001
   3.00000000E+001   6.05005721E-001   6.11923617E-001   5.86554172E-001
   3.50000000E+001   6.61731145E-001   6.46505316E-001   6.46974526E-001
   4.00000000E+001   7.05943737E-001   6.70078425E-001   6.94053894E-001
   4.50000000E+001   7.44936857E-001   6.85702035E-001   7.35572065E-001
   5.00000000E+001   7.76316038E-001   6.95706449E-001   7.68984657E-001
   5.50000000E+001   8.03733078E-001   7.01883483E-001   7.98072300E-001
   6.00000000E+001   8.26402910E-001   7.05573344E-001   8.22057983E-001
   6.50000000E+001   8.47475868E-001   7.07721385E-001   8.44160448E-001
   7.00000000E+001   8.63932390E-001   7.08953296E-001   8.61397413E-001
   7.50000000E+001   8.78730339E-001   7.09657498E-001   8.76789719E-001
   8.00000000E+001   8.92185017E-001   7.10062991E-001   8.90691953E-001
   8.50000000E+001   9.04206623E-001   7.10300073E-001   9.03050366E-001
   9.00000000E+001   9.14798719E-001   7.10441763E-001   9.13896477E-001
   9.50000000E+001   9.23349104E-001   7.10528654E-001   9.22639584E-001
   1.00000000E+002   9.31486719E-001   7.10583437E-001   9.30924075E-001
   1.05000000E+002   9.38068656E-001   7.10618969E-001   9.37618957E-001
   1.10000000E+002   9.44083242E-001   7.10642667E-001   9.43720915E-001
   1.15000000E+002   9.49796241E-001   7.10658900E-001   9.49502090E-001
   1.20000000E+002   9.54919425E-001   7.10670304E-001   9.54678868E-001
   1.25000000E+002   9.59201926E-001   7.10678502E-001   9.59003817E-001
   1.30000000E+002   9.62928302E-001   7.10684523E-001   9.62764111E-001
   1.35000000E+002   9.66627407E-001   7.10689029E-001   9.66490458E-001
   1.40000000E+002   9.69995597E-001   7.10692460E-001   9.69880698E-001
   1.45000000E+002   9.72904286E-001   7.10695114E-001   9.72807360E-001
   1.50000000E+002   9.75185108E-001   7.10697195E-001   9.75102905E-001
   1.55000000E+002   9.77778828E-001   7.10698847E-001   9.77708768E-001
   1.60000000E+002   9.80098783E-001   7.10700173E-001   9.80038790E-001
   1.65000000E+002   9.81542206E-001   7.10701248E-001   9.81490611E-001
   1.70000000E+002   9.83368882E-001   7.10702128E-001   9.83324317E-001
   1.75000000E+002   9.85087943E-001   7.10702853E-001   9.85049293E-001
   1.80000000E+002   9.86401207E-001   7.10703456E-001   9.86367565E-001
   1.85000000E+002   9.87613350E-001   7.10703960E-001   9.87583960E-001
   1.90000000E+002   9.88845634E-001   7.10704384E-001   9.88819869E-001
   1.95000000E+002   9.89980892E-001   7.10704743E-001   9.89958231E-001
   2.00000000E+002   9.90981400E-001   7.10705049E-001   9.90961409E-001
   2.05000000E+002   9.91780416E-001   7.10705310E-001   9.91762726E-001
   2.10000000E+002   9.92576577E-001   7.10705535E-001   9.92560879E-001
   2.15000000E+002   9.93202136E-001   7.10705728E-001   9.93188169E-001
   2.20000000E+002   9.94084897E-001   7.10705896E-001   9.94072436E-001
   2.25000000E+002   9.94545202E-001   7.10706042E-001   9.94534058E-001
   2.30000000E+002   9.95104688E-001   7.10706169E-001   9.95094697E-001
   2.35000000E+002   9.95521504E-001   7.10706280E-001   9.95512527E-001
   2.40000000E+002   9.95968720E-001   7.10706378E-001   9.95960635E-001
   2.45000000E+002   9.96481853E-001   7.10706464E-001   9.96474558E-001
