# ./jetvheto -in n3lo-fixed-order/H125-LHC13-R04-mb-475-mt-1725-xmur100-xmuf200-log.fxd -xQ 0.25 -out benchmarks-n3lo-smallR/H125-LHC13-R04-mb-475-mt-1725-xmur100-xmuf200-xQ025-N3LO+NNLLa.R0-1.0.res -scheme a -order 2 -ptmax 500.01 -fixed_order 3 -small-r -loop-mass t+b -R0 1.0
# process = H    
# collider = pp   
# rts =  13000.000
# M   =    125.000
# muR =    125.000
# muF =    250.000
# Q   =     31.250
# p   =      5.000
# include_c1_squared =   F
# loop_mass  = t+b 
# alphas(MZ) =    0.11800
# alphas(M) =    0.11264
# alphas(muR) =    0.11264
# Rjet =      0.400
# order = NNLL
# pdf name and set = PDF4LHC15_nnlo_mc.LHgrid,    0
# matching scheme = a
# total cross sections [nb] at LO, NLOdiff, NNLOdiff, N3LOdiff =     0.012791    0.017144    0.009991    0.003297
#----------------------------------------------------------------------
# the lines that follow give the jet-veto efficiencies as a function of pt
#         pt            matched eff      resummed eff     fixed-order eff
   2.00000000E+001   4.44836456E-001   5.32534892E-001   4.44294678E-001
   2.50000000E+001   5.33788439E-001   6.01622425E-001   5.34693761E-001
   3.00000000E+001   6.02890302E-001   6.41986390E-001   6.03754500E-001
   3.50000000E+001   6.60079047E-001   6.63848835E-001   6.60767062E-001
   4.00000000E+001   7.06821206E-001   6.75297962E-001   7.07312178E-001
   4.50000000E+001   7.44213264E-001   6.81337661E-001   7.44538846E-001
   5.00000000E+001   7.77720698E-001   6.84624074E-001   7.77954575E-001
   5.50000000E+001   8.04547390E-001   6.86485006E-001   8.04708800E-001
   6.00000000E+001   8.27497457E-001   6.87582425E-001   8.27611409E-001
   6.50000000E+001   8.46912541E-001   6.88254651E-001   8.46993784E-001
   7.00000000E+001   8.64830080E-001   6.88680808E-001   8.64890386E-001
   7.50000000E+001   8.79379596E-001   6.88959371E-001   8.79424059E-001
   8.00000000E+001   8.92005781E-001   6.89146477E-001   8.92038991E-001
   8.50000000E+001   9.03341672E-001   6.89275228E-001   9.03366999E-001
   9.00000000E+001   9.12892421E-001   6.89365754E-001   9.12911817E-001
   9.50000000E+001   9.22042280E-001   6.89430644E-001   9.22057521E-001
   1.00000000E+002   9.29625061E-001   6.89477972E-001   9.29637057E-001
   1.05000000E+002   9.36239174E-001   6.89513036E-001   9.36248679E-001
   1.10000000E+002   9.41903227E-001   6.89539385E-001   9.41910806E-001
   1.15000000E+002   9.47409739E-001   6.89559444E-001   9.47415885E-001
   1.20000000E+002   9.52423383E-001   6.89574895E-001   9.52428414E-001
   1.25000000E+002   9.56456995E-001   6.89586928E-001   9.56461113E-001
   1.30000000E+002   9.60393010E-001   6.89596392E-001   9.60396422E-001
   1.35000000E+002   9.63677477E-001   6.89603905E-001   9.63680309E-001
   1.40000000E+002   9.67119222E-001   6.89609920E-001   9.67121607E-001
   1.45000000E+002   9.69710256E-001   6.89614774E-001   9.69712259E-001
   1.50000000E+002   9.72343137E-001   6.89618721E-001   9.72344836E-001
   1.55000000E+002   9.74668781E-001   6.89621952E-001   9.74670228E-001
   1.60000000E+002   9.76660493E-001   6.89624614E-001   9.76661728E-001
   1.65000000E+002   9.78354074E-001   6.89626821E-001   9.78355133E-001
   1.70000000E+002   9.80276217E-001   6.89628661E-001   9.80277133E-001
   1.75000000E+002   9.81775731E-001   6.89630203E-001   9.81776524E-001
   1.80000000E+002   9.83506469E-001   6.89631502E-001   9.83507162E-001
   1.85000000E+002   9.84621668E-001   6.89632601E-001   9.84622271E-001
   1.90000000E+002   9.85821149E-001   6.89633536E-001   9.85821678E-001
   1.95000000E+002   9.86871227E-001   6.89634335E-001   9.86871691E-001
   2.00000000E+002   9.88109776E-001   6.89635019E-001   9.88110187E-001
   2.05000000E+002   9.88863697E-001   6.89635608E-001   9.88864059E-001
   2.10000000E+002   9.89594712E-001   6.89636117E-001   9.89595033E-001
   2.15000000E+002   9.90440068E-001   6.89636558E-001   9.90440354E-001
   2.20000000E+002   9.91225279E-001   6.89636942E-001   9.91225534E-001
   2.25000000E+002   9.91792693E-001   6.89637276E-001   9.91792921E-001
   2.30000000E+002   9.92344715E-001   6.89637569E-001   9.92344919E-001
   2.35000000E+002   9.92946199E-001   6.89637826E-001   9.92946382E-001
   2.40000000E+002   9.93465319E-001   6.89638053E-001   9.93465484E-001
   2.45000000E+002   9.93969396E-001   6.89638252E-001   9.93969545E-001
