# ./jetvheto -in n3lo-fixed-order/H125-LHC13-R04-mb-0-mt-1725-xmur050-xmuf025-log.fxd -xQ 0.25 -out benchmarks-n3lo-smallR/H125-LHC13-R04-mb-0-mt-1725-xmur050-xmuf025-xQ025-NNLO+NNLLa.R0-1.5.res -scheme a -order 2 -ptmax 500.01 -small-r -fixed_order 2 -loop-mass t -R0 1.5
# process = H    
# collider = pp   
# rts =  13000.000
# M   =    125.000
# muR =     62.500
# muF =     31.250
# Q   =     31.250
# p   =      5.000
# include_c1_squared =   F
# loop_mass  = t   
# alphas(MZ) =    0.11800
# alphas(M) =    0.11264
# alphas(muR) =    0.12516
# Rjet =      0.400
# order = NNLL
# pdf name and set = PDF4LHC15_nnlo_mc.LHgrid,    0
# matching scheme = a
# total cross sections [nb] at LO, NLOdiff, NNLOdiff, N3LOdiff =     0.014513    0.020714    0.009723    0.001827
#----------------------------------------------------------------------
# the lines that follow give the jet-veto efficiencies as a function of pt
#         pt            matched eff      resummed eff     fixed-order eff
   2.00000000E+001   4.56137588E-001   4.87403612E-001   4.65116582E-001
   2.50000000E+001   5.43943771E-001   5.58309444E-001   5.50748567E-001
   3.00000000E+001   6.13005300E-001   6.00618418E-001   6.17529161E-001
   3.50000000E+001   6.68318627E-001   6.23875622E-001   6.71215264E-001
   4.00000000E+001   7.13166503E-001   6.36169154E-001   7.15019810E-001
   4.50000000E+001   7.50057489E-001   6.42690018E-001   7.51263285E-001
   5.00000000E+001   7.80970804E-001   6.46249470E-001   7.81771475E-001
   5.50000000E+001   8.07014286E-001   6.48268670E-001   8.07558389E-001
   6.00000000E+001   8.29273230E-001   6.49460687E-001   8.29651327E-001
   6.50000000E+001   8.48460549E-001   6.50191328E-001   8.48728738E-001
   7.00000000E+001   8.65111011E-001   6.50654705E-001   8.65304940E-001
   7.50000000E+001   8.79471988E-001   6.50957676E-001   8.79614533E-001
   8.00000000E+001   8.92186934E-001   6.51161211E-001   8.92293484E-001
   8.50000000E+001   9.03293801E-001   6.51301283E-001   9.03374587E-001
   9.00000000E+001   9.13140347E-001   6.51399778E-001   9.13202411E-001
   9.50000000E+001   9.21770917E-001   6.51470384E-001   9.21819156E-001
   1.00000000E+002   9.29499604E-001   6.51521883E-001   9.29537526E-001
   1.05000000E+002   9.36410930E-001   6.51560038E-001   9.36441049E-001
   1.10000000E+002   9.42538397E-001   6.51588711E-001   9.42562544E-001
   1.15000000E+002   9.48085509E-001   6.51610539E-001   9.48105041E-001
   1.20000000E+002   9.53055887E-001   6.51627354E-001   9.53071810E-001
   1.25000000E+002   9.57458540E-001   6.51640448E-001   9.57471615E-001
   1.30000000E+002   9.61469532E-001   6.51650747E-001   9.61480347E-001
   1.35000000E+002   9.65079322E-001   6.51658923E-001   9.65088327E-001
   1.40000000E+002   9.68354200E-001   6.51665469E-001   9.68361743E-001
   1.45000000E+002   9.71352923E-001   6.51670752E-001   9.71359278E-001
   1.50000000E+002   9.74035486E-001   6.51675047E-001   9.74040869E-001
   1.55000000E+002   9.76474100E-001   6.51678563E-001   9.76478682E-001
   1.60000000E+002   9.78709288E-001   6.51681460E-001   9.78713207E-001
   1.65000000E+002   9.80742106E-001   6.51683862E-001   9.80745474E-001
   1.70000000E+002   9.82568032E-001   6.51685864E-001   9.82570938E-001
   1.75000000E+002   9.84237008E-001   6.51687542E-001   9.84239526E-001
   1.80000000E+002   9.85764109E-001   6.51688956E-001   9.85766299E-001
   1.85000000E+002   9.87145399E-001   6.51690153E-001   9.87147310E-001
   1.90000000E+002   9.88425184E-001   6.51691170E-001   9.88426858E-001
   1.95000000E+002   9.89603670E-001   6.51692039E-001   9.89605142E-001
   2.00000000E+002   9.90661705E-001   6.51692784E-001   9.90663002E-001
   2.05000000E+002   9.91646724E-001   6.51693425E-001   9.91647871E-001
   2.10000000E+002   9.92555415E-001   6.51693979E-001   9.92556433E-001
   2.15000000E+002   9.93344107E-001   6.51694459E-001   9.93345012E-001
   2.20000000E+002   9.94091195E-001   6.51694876E-001   9.94092001E-001
   2.25000000E+002   9.94785130E-001   6.51695240E-001   9.94785851E-001
   2.30000000E+002   9.95400955E-001   6.51695559E-001   9.95401600E-001
   2.35000000E+002   9.95963487E-001   6.51695839E-001   9.95964066E-001
   2.40000000E+002   9.96470282E-001   6.51696085E-001   9.96470804E-001
   2.45000000E+002   9.96948152E-001   6.51696302E-001   9.96948622E-001
