# ./jetvheto -in n3lo-fixed-order/H125-LHC13-R04-mb-475-mt-1725-xmur025-xmuf050-log.fxd -xQ 0.25 -out benchmarks-n3lo-smallR/H125-LHC13-R04-mb-475-mt-1725-xmur025-xmuf050-xQ025-N3LO+NNLLb.R0-1.0.res -scheme b -order 2 -ptmax 500.01 -fixed_order 3 -small-r -loop-mass t+b -R0 1.0
# process = H    
# collider = pp   
# rts =  13000.000
# M   =    125.000
# muR =     31.250
# muF =     62.500
# Q   =     31.250
# p   =      5.000
# include_c1_squared =   F
# loop_mass  = t+b 
# alphas(MZ) =    0.11800
# alphas(M) =    0.11264
# alphas(muR) =    0.14091
# Rjet =      0.400
# order = NNLL
# pdf name and set = PDF4LHC15_nnlo_mc.LHgrid,    0
# matching scheme = b
# total cross sections [nb] at LO, NLOdiff, NNLOdiff, N3LOdiff =     0.017683    0.024805    0.005009   -0.002663
#----------------------------------------------------------------------
# the lines that follow give the jet-veto efficiencies as a function of pt
#         pt            matched eff      resummed eff     fixed-order eff
   2.00000000E+001   4.63748158E-001   4.25085904E-001   4.77630795E-001
   2.50000000E+001   5.49245487E-001   4.83694845E-001   5.55490405E-001
   3.00000000E+001   6.23944277E-001   5.18310189E-001   6.27139586E-001
   3.50000000E+001   6.82365133E-001   5.37208930E-001   6.83914005E-001
   4.00000000E+001   7.25776545E-001   5.47156705E-001   7.26455264E-001
   4.50000000E+001   7.65249767E-001   5.52420095E-001   7.65589394E-001
   5.00000000E+001   7.95813937E-001   5.55289069E-001   7.95971836E-001
   5.50000000E+001   8.22921839E-001   5.56915253E-001   8.23001148E-001
   6.00000000E+001   8.44583122E-001   5.57874799E-001   8.44619420E-001
   6.50000000E+001   8.65601281E-001   5.58462777E-001   8.65621325E-001
   7.00000000E+001   8.80558256E-001   5.58835609E-001   8.80565053E-001
   7.50000000E+001   8.94303065E-001   5.59079350E-001   8.94304462E-001
   8.00000000E+001   9.06982214E-001   5.59243082E-001   9.06981466E-001
   8.50000000E+001   9.18315923E-001   5.59355756E-001   9.18314335E-001
   9.00000000E+001   9.28268532E-001   5.59434982E-001   9.28266666E-001
   9.50000000E+001   9.35712203E-001   5.59491774E-001   9.35709992E-001
   1.00000000E+002   9.43138510E-001   5.59533196E-001   9.43136433E-001
   1.05000000E+002   9.48653025E-001   5.59563885E-001   9.48650978E-001
   1.10000000E+002   9.53802421E-001   5.59586948E-001   9.53800536E-001
   1.15000000E+002   9.58921158E-001   5.59604504E-001   9.58919523E-001
   1.20000000E+002   9.63512006E-001   5.59618028E-001   9.63510598E-001
   1.25000000E+002   9.67062038E-001   5.59628560E-001   9.67060783E-001
   1.30000000E+002   9.70087244E-001   5.59636843E-001   9.70086131E-001
   1.35000000E+002   9.73358462E-001   5.59643419E-001   9.73357507E-001
   1.40000000E+002   9.76338376E-001   5.59648684E-001   9.76337556E-001
   1.45000000E+002   9.78818355E-001   5.59652933E-001   9.78817643E-001
   1.50000000E+002   9.80453985E-001   5.59656388E-001   9.80453348E-001
   1.55000000E+002   9.82811762E-001   5.59659216E-001   9.82811216E-001
   1.60000000E+002   9.84896993E-001   5.59661546E-001   9.84896523E-001
   1.65000000E+002   9.85704887E-001   5.59663478E-001   9.85704461E-001
   1.70000000E+002   9.87284068E-001   5.59665088E-001   9.87283697E-001
   1.75000000E+002   9.88791835E-001   5.59666438E-001   9.88791511E-001
   1.80000000E+002   9.89774870E-001   5.59667575E-001   9.89774582E-001
   1.85000000E+002   9.90674986E-001   5.59668537E-001   9.90674731E-001
   1.90000000E+002   9.91706318E-001   5.59669355E-001   9.91706092E-001
   1.95000000E+002   9.92670182E-001   5.59670054E-001   9.92669982E-001
   2.00000000E+002   9.93492789E-001   5.59670653E-001   9.93492612E-001
   2.05000000E+002   9.94045967E-001   5.59671169E-001   9.94045808E-001
   2.10000000E+002   9.94679913E-001   5.59671614E-001   9.94679771E-001
   2.15000000E+002   9.95064544E-001   5.59672000E-001   9.95064416E-001
   2.20000000E+002   9.95928501E-001   5.59672336E-001   9.95928387E-001
   2.25000000E+002   9.96170349E-001   5.59672629E-001   9.96170247E-001
   2.30000000E+002   9.96582475E-001   5.59672885E-001   9.96582383E-001
   2.35000000E+002   9.96828860E-001   5.59673110E-001   9.96828776E-001
   2.40000000E+002   9.97153172E-001   5.59673308E-001   9.97153096E-001
   2.45000000E+002   9.97627182E-001   5.59673483E-001   9.97627113E-001
