# ./jetvheto -in n3lo-fixed-order/H125-LHC13-R04-heft-xmur200-xmuf100-log.fxd -xQ 0.50 -out benchmarks-n3lo-smallR/H125-LHC13-R04-heft-xmur200-xmuf100-xQ050-NNLO+NNLLb.R0-1.5.res -scheme b -order 2 -ptmax 500.01 -fixed_order 2 -small-r -R0 1.5
# process = H    
# collider = pp   
# rts =  13000.000
# M   =    125.000
# muR =    250.000
# muF =    125.000
# Q   =     62.500
# p   =      5.000
# include_c1_squared =   F
# loop_mass  = none
# alphas(MZ) =    0.11800
# alphas(M) =    0.11264
# alphas(muR) =    0.10244
# Rjet =      0.400
# order = NNLL
# pdf name and set = PDF4LHC15_nnlo_mc.LHgrid,    0
# matching scheme = b
# total cross sections [nb] at LO, NLOdiff, NNLOdiff, N3LOdiff =     0.010706    0.014429    0.010526    0.005600
#----------------------------------------------------------------------
# the lines that follow give the jet-veto efficiencies as a function of pt
#         pt            matched eff      resummed eff     fixed-order eff
   2.00000000E+001   4.19679094E-001   5.28254859E-001   3.48106183E-001
   2.50000000E+001   5.03242217E-001   6.12730332E-001   4.55588041E-001
   3.00000000E+001   5.71089996E-001   6.73080030E-001   5.37570282E-001
   3.50000000E+001   6.26601346E-001   7.15686764E-001   6.02074156E-001
   4.00000000E+001   6.72687790E-001   7.45238527E-001   6.54294727E-001
   4.50000000E+001   7.11147902E-001   7.65249107E-001   6.97166553E-001
   5.00000000E+001   7.43676135E-001   7.78418247E-001   7.32995597E-001
   5.50000000E+001   7.71379379E-001   7.86836018E-001   7.63221162E-001
   6.00000000E+001   7.95280427E-001   7.92087377E-001   7.89063600E-001
   6.50000000E+001   8.16077067E-001   7.95315022E-001   8.11346410E-001
   7.00000000E+001   8.34159280E-001   7.97292423E-001   8.30558028E-001
   7.50000000E+001   8.50099358E-001   7.98513791E-001   8.47350188E-001
   8.00000000E+001   8.64165370E-001   7.99281333E-001   8.62056499E-001
   8.50000000E+001   8.76576608E-001   7.99774909E-001   8.74948311E-001
   9.00000000E+001   8.87682627E-001   8.00100649E-001   8.86415948E-001
   9.50000000E+001   8.97519823E-001   8.00321383E-001   8.96526436E-001
   1.00000000E+002   9.06316710E-001   8.00474805E-001   9.05531112E-001
   1.05000000E+002   9.14202629E-001   8.00583975E-001   9.13576167E-001
   1.10000000E+002   9.21249746E-001   8.00663324E-001   9.20746096E-001
   1.15000000E+002   9.27632440E-001   8.00722105E-001   9.27224331E-001
   1.20000000E+002   9.33371771E-001   8.00766390E-001   9.33038574E-001
   1.25000000E+002   9.38555600E-001   8.00800259E-001   9.38281626E-001
   1.30000000E+002   9.43241615E-001   8.00826510E-001   9.43014804E-001
   1.35000000E+002   9.47518806E-001   8.00847101E-001   9.47329832E-001
   1.40000000E+002   9.51360494E-001   8.00863426E-001   9.51202088E-001
   1.45000000E+002   9.54913593E-001   8.00876496E-001   9.54780054E-001
   1.50000000E+002   9.58098778E-001   8.00887053E-001   9.57985592E-001
   1.55000000E+002   9.61024433E-001   8.00895648E-001   9.60928009E-001
   1.60000000E+002   9.63720430E-001   8.00902698E-001   9.63637891E-001
   1.65000000E+002   9.66171854E-001   8.00908520E-001   9.66100877E-001
   1.70000000E+002   9.68445748E-001   8.00913358E-001   9.68384452E-001
   1.75000000E+002   9.70508904E-001   8.00917402E-001   9.70455751E-001
   1.80000000E+002   9.72428810E-001   8.00920802E-001   9.72382541E-001
   1.85000000E+002   9.74180063E-001   8.00923674E-001   9.74139638E-001
   1.90000000E+002   9.75799280E-001   8.00926112E-001   9.75763839E-001
   1.95000000E+002   9.77320419E-001   8.00928190E-001   9.77289243E-001
   2.00000000E+002   9.78717508E-001   8.00929971E-001   9.78689998E-001
   2.05000000E+002   9.80014779E-001   8.00931501E-001   9.79990430E-001
   2.10000000E+002   9.81208832E-001   8.00932822E-001   9.81187220E-001
   2.15000000E+002   9.82305198E-001   8.00933966E-001   9.82285962E-001
   2.20000000E+002   9.83334963E-001   8.00934961E-001   9.83317796E-001
   2.25000000E+002   9.84288706E-001   8.00935828E-001   9.84273349E-001
   2.30000000E+002   9.85180630E-001   8.00936586E-001   9.85166858E-001
   2.35000000E+002   9.86028857E-001   8.00937252E-001   9.86016478E-001
   2.40000000E+002   9.86801087E-001   8.00937837E-001   9.86789936E-001
   2.45000000E+002   9.87529459E-001   8.00938353E-001   9.87519392E-001
