# ./jetvheto -in n3lo-fixed-order/H125-LHC13-R04-mb-0-mt-1725-xmur100-xmuf100-log.fxd -xQ 0.75 -out benchmarks-n3lo-smallR/H125-LHC13-R04-mb-0-mt-1725-xmur100-xmuf100-xQ075-NNLO+NNLLb.res -scheme b -order 2 -ptmax 500.01 -fixed_order 2 -loop-mass t
# process = H    
# collider = pp   
# rts =  13000.000
# M   =    125.000
# muR =    125.000
# muF =    125.000
# Q   =     93.750
# p   =      5.000
# include_c1_squared =   F
# loop_mass  = t   
# alphas(MZ) =    0.11800
# alphas(M) =    0.11264
# alphas(muR) =    0.11264
# Rjet =      0.400
# order = NNLL
# pdf name and set = PDF4LHC15_nnlo_mc.LHgrid,    0
# matching scheme = b
# total cross sections [nb] at LO, NLOdiff, NNLOdiff, N3LOdiff =     0.013801    0.017514    0.010146    0.003834
#----------------------------------------------------------------------
# the lines that follow give the jet-veto efficiencies as a function of pt
#         pt            matched eff      resummed eff     fixed-order eff
   2.00000000E+001   4.40862607E-001   5.45104179E-001   3.54033455E-001
   2.50000000E+001   5.26961404E-001   6.32352102E-001   4.61286580E-001
   3.00000000E+001   5.96061040E-001   6.94393823E-001   5.43462220E-001
   3.50000000E+001   6.52317144E-001   7.38169022E-001   6.08508831E-001
   4.00000000E+001   6.98602932E-001   7.68635614E-001   6.61203589E-001
   4.50000000E+001   7.36802283E-001   7.89332045E-001   7.04404447E-001
   5.00000000E+001   7.68768134E-001   8.02802870E-001   7.40494892E-001
   5.50000000E+001   7.95612425E-001   8.10935411E-001   7.70889733E-001
   6.00000000E+001   8.18461955E-001   8.15162646E-001   7.96874542E-001
   6.50000000E+001   8.37985738E-001   8.16597987E-001   8.19206785E-001
   7.00000000E+001   8.54656358E-001   8.16115606E-001   8.38409214E-001
   7.50000000E+001   8.69208349E-001   8.14399133E-001   8.55230292E-001
   8.00000000E+001   8.81916891E-001   8.11975495E-001   8.69962422E-001
   8.50000000E+001   8.92987814E-001   8.09235767E-001   8.82823656E-001
   9.00000000E+001   9.02811839E-001   8.06454664E-001   8.94209219E-001
   9.50000000E+001   9.11483266E-001   8.03809080E-001   9.04230001E-001
   1.00000000E+002   9.19269141E-001   8.01399464E-001   9.13167919E-001
   1.05000000E+002   9.26260399E-001   7.99270535E-001   9.21134551E-001
   1.10000000E+002   9.32476292E-001   7.97429717E-001   9.28171457E-001
   1.15000000E+002   9.38172748E-001   7.95861981E-001   9.34553636E-001
   1.20000000E+002   9.43291290E-001   7.94540491E-001   9.40244216E-001
   1.25000000E+002   9.47960822E-001   7.93433980E-001   9.45389469E-001
   1.30000000E+002   9.52218287E-001   7.92511094E-001   9.50042546E-001
   1.35000000E+002   9.56074943E-001   7.91742766E-001   9.54228420E-001
   1.40000000E+002   9.59585252E-001   7.91103277E-001   9.58013167E-001
   1.45000000E+002   9.62835833E-001   7.90570543E-001   9.61492620E-001
   1.50000000E+002   9.65746975E-001   7.90125965E-001   9.64595577E-001
   1.55000000E+002   9.68455463E-001   7.89754080E-001   9.67464933E-001
   1.60000000E+002   9.70940031E-001   7.89442132E-001   9.70084916E-001
   1.65000000E+002   9.73196331E-001   7.89179656E-001   9.72455647E-001
   1.70000000E+002   9.75278105E-001   7.88958085E-001   9.74634361E-001
   1.75000000E+002   9.77153609E-001   7.88770412E-001   9.76592344E-001
   1.80000000E+002   9.78899521E-001   7.88610909E-001   9.78408580E-001
   1.85000000E+002   9.80486585E-001   7.88474883E-001   9.80055856E-001
   1.90000000E+002   9.81960867E-001   7.88358484E-001   9.81581823E-001
   1.95000000E+002   9.83327338E-001   7.88258546E-001   9.82992805E-001
   2.00000000E+002   9.84567039E-001   7.88172462E-001   9.84270986E-001
   2.05000000E+002   9.85727342E-001   7.88098071E-001   9.85464627E-001
   2.10000000E+002   9.86777055E-001   7.88033587E-001   9.86543334E-001
   2.15000000E+002   9.87735838E-001   7.87977520E-001   9.87527400E-001
   2.20000000E+002   9.88637250E-001   7.87928629E-001   9.88450903E-001
   2.25000000E+002   9.89462588E-001   7.87885874E-001   9.89295609E-001
   2.30000000E+002   9.90227783E-001   7.87848382E-001   9.90077825E-001
   2.35000000E+002   9.90946619E-001   7.87815418E-001   9.90811652E-001
   2.40000000E+002   9.91591611E-001   7.87786361E-001   9.91469891E-001
   2.45000000E+002   9.92199214E-001   7.87760684E-001   9.92089219E-001
