# ./jetvheto -in n3lo-fixed-order/H125-LHC13-R04-mb-475-mt-1725-xmur050-xmuf025-log.fxd -xQ 0.5 -out benchmarks-n3lo-smallR/H125-LHC13-R04-mb-475-mt-1725-xmur050-xmuf025-xQ050-NNLO+NNLLb.R0-2.0.res -scheme b -order 2 -ptmax 500.01 -fixed_order 2 -small-r -loop-mass t+b -R0 2.0
# process = H    
# collider = pp   
# rts =  13000.000
# M   =    125.000
# muR =     62.500
# muF =     31.250
# Q   =     62.500
# p   =      5.000
# include_c1_squared =   F
# loop_mass  = t+b 
# alphas(MZ) =    0.11800
# alphas(M) =    0.11264
# alphas(muR) =    0.12516
# Rjet =      0.400
# order = NNLL
# pdf name and set = PDF4LHC15_nnlo_mc.LHgrid,    0
# matching scheme = b
# total cross sections [nb] at LO, NLOdiff, NNLOdiff, N3LOdiff =     0.012926    0.020318    0.009723    0.001827
#----------------------------------------------------------------------
# the lines that follow give the jet-veto efficiencies as a function of pt
#         pt            matched eff      resummed eff     fixed-order eff
   2.00000000E+001   3.98117672E-001   4.74615887E-001   2.88336474E-001
   2.50000000E+001   4.77733028E-001   5.48346956E-001   3.97742417E-001
   3.00000000E+001   5.43479272E-001   6.00967089E-001   4.83975232E-001
   3.50000000E+001   5.98873926E-001   6.38065601E-001   5.54141575E-001
   4.00000000E+001   6.45695028E-001   6.63788846E-001   6.11905414E-001
   4.50000000E+001   6.85723677E-001   6.81198091E-001   6.60208815E-001
   5.00000000E+001   7.20251884E-001   6.92639734E-001   7.01026371E-001
   5.50000000E+001   7.50132166E-001   6.99941410E-001   7.35693044E-001
   6.00000000E+001   7.76337185E-001   7.04487706E-001   7.65510942E-001
   6.50000000E+001   7.99444441E-001   7.07274850E-001   7.91321316E-001
   7.00000000E+001   8.20055432E-001   7.08976950E-001   8.13940958E-001
   7.50000000E+001   8.38056906E-001   7.10024393E-001   8.33429617E-001
   8.00000000E+001   8.54277772E-001   7.10680129E-001   8.50751155E-001
   8.50000000E+001   8.68780573E-001   7.11100241E-001   8.66070164E-001
   9.00000000E+001   8.81675816E-001   7.11376521E-001   8.79574110E-001
   9.50000000E+001   8.93068679E-001   7.11563135E-001   8.91423954E-001
   1.00000000E+002   9.03294322E-001   7.11692470E-001   9.01995478E-001
   1.05000000E+002   9.12545844E-001   7.11784272E-001   9.11510900E-001
   1.10000000E+002   9.20798082E-001   7.11850857E-001   9.19966378E-001
   1.15000000E+002   9.28279351E-001   7.11900095E-001   9.27605481E-001
   1.20000000E+002   9.35050420E-001   7.11937137E-001   9.34500136E-001
   1.25000000E+002   9.41098788E-001   7.11965431E-001   9.40646112E-001
   1.30000000E+002   9.46592747E-001   7.11987339E-001   9.46217827E-001
   1.35000000E+002   9.51544973E-001   7.12004509E-001   9.51232453E-001
   1.40000000E+002   9.56013616E-001   7.12018113E-001   9.55751503E-001
   1.45000000E+002   9.60149463E-001   7.12028998E-001   9.59928357E-001
   1.50000000E+002   9.63865139E-001   7.12037786E-001   9.63677611E-001
   1.55000000E+002   9.67246511E-001   7.12044938E-001   9.67086651E-001
   1.60000000E+002   9.70345721E-001   7.12050802E-001   9.70208793E-001
   1.65000000E+002   9.73152105E-001   7.12055644E-001   9.73034291E-001
   1.70000000E+002   9.75696236E-001   7.12059667E-001   9.75594429E-001
   1.75000000E+002   9.78013348E-001   7.12063029E-001   9.77925021E-001
   1.80000000E+002   9.80117737E-001   7.12065854E-001   9.80040810E-001
   1.85000000E+002   9.82028353E-001   7.12068241E-001   9.81961107E-001
   1.90000000E+002   9.83803656E-001   7.12070266E-001   9.83744670E-001
   1.95000000E+002   9.85430362E-001   7.12071993E-001   9.85378453E-001
   2.00000000E+002   9.86907968E-001   7.12073472E-001   9.86862141E-001
   2.05000000E+002   9.88274520E-001   7.12074744E-001   9.88233944E-001
   2.10000000E+002   9.89526172E-001   7.12075841E-001   9.89490142E-001
   2.15000000E+002   9.90630460E-001   7.12076791E-001   9.90598380E-001
   2.20000000E+002   9.91675336E-001   7.12077617E-001   9.91646698E-001
   2.25000000E+002   9.92625025E-001   7.12078337E-001   9.92599398E-001
   2.30000000E+002   9.93479887E-001   7.12078967E-001   9.93456899E-001
   2.35000000E+002   9.94278513E-001   7.12079520E-001   9.94257844E-001
   2.40000000E+002   9.94987611E-001   7.12080006E-001   9.94968988E-001
   2.45000000E+002   9.95635706E-001   7.12080435E-001   9.95618890E-001
