# ./jetvheto -in n3lo-fixed-order/H125-LHC13-R04-heft-xmur050-xmuf050-log.fxd -xQ 0.25 -out benchmarks-n3lo-smallR/H125-LHC13-R04-heft-xmur050-xmuf050-xQ025-NNLO+NNLLa.R0-1.5.res -scheme a -order 2 -ptmax 500.01 -fixed_order 2 -small-r -R0 1.5
# process = H    
# collider = pp   
# rts =  13000.000
# M   =    125.000
# muR =     62.500
# muF =     62.500
# Q   =     31.250
# p   =      5.000
# include_c1_squared =   F
# loop_mass  = none
# alphas(MZ) =    0.11800
# alphas(M) =    0.11264
# alphas(muR) =    0.12516
# Rjet =      0.400
# order = NNLL
# pdf name and set = PDF4LHC15_nnlo_mc.LHgrid,    0
# matching scheme = a
# total cross sections [nb] at LO, NLOdiff, NNLOdiff, N3LOdiff =     0.015055    0.019611    0.008998    0.001413
#----------------------------------------------------------------------
# the lines that follow give the jet-veto efficiencies as a function of pt
#         pt            matched eff      resummed eff     fixed-order eff
   2.00000000E+001   4.58524102E-001   4.93253524E-001   4.60803594E-001
   2.50000000E+001   5.44195848E-001   5.61805521E-001   5.46887027E-001
   3.00000000E+001   6.12030403E-001   6.02403744E-001   6.14137214E-001
   3.50000000E+001   6.66223903E-001   6.24609017E-001   6.67697748E-001
   4.00000000E+001   7.10385061E-001   6.36310132E-001   7.11386119E-001
   4.50000000E+001   7.46892749E-001   6.42505129E-001   7.47572136E-001
   5.00000000E+001   7.77477699E-001   6.45883103E-001   7.77943884E-001
   5.50000000E+001   8.03344996E-001   6.47798185E-001   8.03669340E-001
   6.00000000E+001   8.25340610E-001   6.48928330E-001   8.25569926E-001
   6.50000000E+001   8.44301549E-001   6.49620897E-001   8.44466421E-001
   7.00000000E+001   8.60783751E-001   6.50060067E-001   8.60904291E-001
   7.50000000E+001   8.75018226E-001   6.50347185E-001   8.75107581E-001
   8.00000000E+001   8.87515974E-001   6.50540059E-001   8.87583197E-001
   8.50000000E+001   8.98524157E-001   6.50672790E-001   8.98575401E-001
   9.00000000E+001   9.08254731E-001   6.50766119E-001   9.08294278E-001
   9.50000000E+001   9.16801010E-001   6.50833021E-001   9.16831850E-001
   1.00000000E+002   9.24411948E-001   6.50881817E-001   9.24436265E-001
   1.05000000E+002   9.31145547E-001   6.50917970E-001   9.31164894E-001
   1.10000000E+002   9.37192733E-001   6.50945138E-001   9.37208272E-001
   1.15000000E+002   9.42582864E-001   6.50965820E-001   9.42595447E-001
   1.20000000E+002   9.47441062E-001   6.50981752E-001   9.47451332E-001
   1.25000000E+002   9.51818246E-001   6.50994158E-001   9.51826691E-001
   1.30000000E+002   9.55732989E-001   6.51003917E-001   9.55739978E-001
   1.35000000E+002   9.59294332E-001   6.51011663E-001   9.59300155E-001
   1.40000000E+002   9.62520277E-001   6.51017866E-001   9.62525156E-001
   1.45000000E+002   9.65412229E-001   6.51022871E-001   9.65416341E-001
   1.50000000E+002   9.68069968E-001   6.51026941E-001   9.68073453E-001
   1.55000000E+002   9.70466598E-001   6.51030272E-001   9.70469565E-001
   1.60000000E+002   9.72670416E-001   6.51033017E-001   9.72672954E-001
   1.65000000E+002   9.74657434E-001   6.51035293E-001   9.74659615E-001
   1.70000000E+002   9.76496312E-001   6.51037190E-001   9.76498194E-001
   1.75000000E+002   9.78191369E-001   6.51038780E-001   9.78193000E-001
   1.80000000E+002   9.79722300E-001   6.51040119E-001   9.79723719E-001
   1.85000000E+002   9.81135022E-001   6.51041253E-001   9.81136260E-001
   1.90000000E+002   9.82437806E-001   6.51042217E-001   9.82438890E-001
   1.95000000E+002   9.83624640E-001   6.51043040E-001   9.83625593E-001
   2.00000000E+002   9.84719851E-001   6.51043746E-001   9.84720691E-001
   2.05000000E+002   9.85742610E-001   6.51044353E-001   9.85743353E-001
   2.10000000E+002   9.86672058E-001   6.51044878E-001   9.86672717E-001
   2.15000000E+002   9.87544455E-001   6.51045333E-001   9.87545040E-001
   2.20000000E+002   9.88352176E-001   6.51045728E-001   9.88352698E-001
   2.25000000E+002   9.89076373E-001   6.51046073E-001   9.89076840E-001
   2.30000000E+002   9.89791199E-001   6.51046375E-001   9.89791617E-001
   2.35000000E+002   9.90421462E-001   6.51046640E-001   9.90421838E-001
   2.40000000E+002   9.91018670E-001   6.51046874E-001   9.91019008E-001
   2.45000000E+002   9.91573802E-001   6.51047080E-001   9.91574107E-001
