# ./jetvheto -in n3lo-fixed-order/H125-LHC13-R04-mb-475-mt-1725-xmur050-xmuf050-log.fxd -xQ 0.333 -out benchmarks-n3lo-smallR/H125-LHC13-R04-mb-475-mt-1725-xmur050-xmuf050-xQ033-N3LO+NNLLa.R0-0.5.res -scheme a -order 2 -ptmax 500.01 -fixed_order 3 -small-r -loop-mass t+b -R0 0.5
# process = H    
# collider = pp   
# rts =  13000.000
# M   =    125.000
# muR =     62.500
# muF =     62.500
# Q   =     41.625
# p   =      5.000
# include_c1_squared =   F
# loop_mass  = t+b 
# alphas(MZ) =    0.11800
# alphas(M) =    0.11264
# alphas(muR) =    0.12516
# Rjet =      0.400
# order = NNLL
# pdf name and set = PDF4LHC15_nnlo_mc.LHgrid,    0
# matching scheme = a
# total cross sections [nb] at LO, NLOdiff, NNLOdiff, N3LOdiff =     0.014147    0.020254    0.008998    0.001413
#----------------------------------------------------------------------
# the lines that follow give the jet-veto efficiencies as a function of pt
#         pt            matched eff      resummed eff     fixed-order eff
   2.00000000E+001   4.38934391E-001   4.64653363E-001   4.41074844E-001
   2.50000000E+001   5.25808116E-001   5.37922007E-001   5.26291803E-001
   3.00000000E+001   5.99401273E-001   5.87602166E-001   5.99588615E-001
   3.50000000E+001   6.58228441E-001   6.19851985E-001   6.58104134E-001
   4.00000000E+001   7.04041543E-001   6.39910349E-001   7.03699261E-001
   4.50000000E+001   7.44212626E-001   6.52015644E-001   7.43908515E-001
   5.00000000E+001   7.76534536E-001   6.59243144E-001   7.76267730E-001
   5.50000000E+001   8.04642439E-001   6.63588720E-001   8.04438345E-001
   6.00000000E+001   8.27826299E-001   6.66250248E-001   8.27667847E-001
   6.50000000E+001   8.49187547E-001   6.67920193E-001   8.49073502E-001
   7.00000000E+001   8.65856585E-001   6.68995329E-001   8.65767048E-001
   7.50000000E+001   8.80742708E-001   6.69705260E-001   8.80674091E-001
   8.00000000E+001   8.94190323E-001   6.70185359E-001   8.94138038E-001
   8.50000000E+001   9.06146945E-001   6.70517264E-001   9.06106835E-001
   9.00000000E+001   9.16642090E-001   6.70751389E-001   9.16611008E-001
   9.50000000E+001   9.25103352E-001   6.70919602E-001   9.25078477E-001
   1.00000000E+002   9.33121565E-001   6.71042494E-001   9.33101787E-001
   1.05000000E+002   9.39601730E-001   6.71133654E-001   9.39585604E-001
   1.10000000E+002   9.45508358E-001   6.71202220E-001   9.45495190E-001
   1.15000000E+002   9.51104842E-001   6.71254454E-001   9.51094105E-001
   1.20000000E+002   9.56116492E-001   6.71294712E-001   9.56107678E-001
   1.25000000E+002   9.60303629E-001   6.71326075E-001   9.60296277E-001
   1.30000000E+002   9.63944194E-001   6.71350751E-001   9.63938023E-001
   1.35000000E+002   9.67552058E-001   6.71370345E-001   9.67546891E-001
   1.40000000E+002   9.70834599E-001   6.71386036E-001   9.70830250E-001
   1.45000000E+002   9.73668334E-001   6.71398701E-001   9.73664645E-001
   1.50000000E+002   9.75890993E-001   6.71408999E-001   9.75887820E-001
   1.55000000E+002   9.78414234E-001   6.71417431E-001   9.78411529E-001
   1.60000000E+002   9.80670413E-001   6.71424379E-001   9.80668095E-001
   1.65000000E+002   9.82076170E-001   6.71430139E-001   9.82074144E-001
   1.70000000E+002   9.83851794E-001   6.71434941E-001   9.83850040E-001
   1.75000000E+002   9.85522158E-001   6.71438967E-001   9.85520635E-001
   1.80000000E+002   9.86798680E-001   6.71442358E-001   9.86797346E-001
   1.85000000E+002   9.87976565E-001   6.71445228E-001   9.87975392E-001
   1.90000000E+002   9.89173368E-001   6.71447669E-001   9.89172337E-001
   1.95000000E+002   9.90275720E-001   6.71449753E-001   9.90274812E-001
   2.00000000E+002   9.91247166E-001   6.71451539E-001   9.91246363E-001
   2.05000000E+002   9.92023132E-001   6.71453077E-001   9.92022417E-001
   2.10000000E+002   9.92796043E-001   6.71454406E-001   9.92795408E-001
   2.15000000E+002   9.93403489E-001   6.71455557E-001   9.93402921E-001
   2.20000000E+002   9.94259816E-001   6.71456559E-001   9.94259310E-001
   2.25000000E+002   9.94706834E-001   6.71457433E-001   9.94706379E-001
   2.30000000E+002   9.95249752E-001   6.71458197E-001   9.95249343E-001
   2.35000000E+002   9.95654370E-001   6.71458869E-001   9.95654001E-001
   2.40000000E+002   9.96088315E-001   6.71459459E-001   9.96087982E-001
   2.45000000E+002   9.96586003E-001   6.71459981E-001   9.96585702E-001
