# ./jetvheto -in n3lo-fixed-order/H125-LHC13-R04-mb-475-mt-1725-xmur200-xmuf100-log.fxd -xQ 0.0625 -out benchmarks-n3lo-smallR/H125-LHC13-R04-mb-475-mt-1725-xmur200-xmuf100-xQ0625-NNLO+NNLLb.R0-1.0.res -scheme b -order 2 -ptmax 500.01 -fixed_order 2 -small-r -loop-mass t+b -R0 1.0
# process = H    
# collider = pp   
# rts =  13000.000
# M   =    125.000
# muR =    250.000
# muF =    125.000
# Q   =      7.812
# p   =      5.000
# include_c1_squared =   F
# loop_mass  = t+b 
# alphas(MZ) =    0.11800
# alphas(M) =    0.11264
# alphas(muR) =    0.10244
# Rjet =      0.400
# order = NNLL
# pdf name and set = PDF4LHC15_nnlo_mc.LHgrid,    0
# matching scheme = b
# total cross sections [nb] at LO, NLOdiff, NNLOdiff, N3LOdiff =     0.010243    0.014468    0.010526    0.005600
#----------------------------------------------------------------------
# the lines that follow give the jet-veto efficiencies as a function of pt
#         pt            matched eff      resummed eff     fixed-order eff
   2.00000000E+001   3.29576048E-001   3.57386531E-001   3.28991553E-001
   2.50000000E+001   4.38056108E-001   3.57978901E-001   4.37913320E-001
   3.00000000E+001   5.21565082E-001   3.58152354E-001   5.21523223E-001
   3.50000000E+001   5.88087307E-001   3.58215062E-001   5.88073721E-001
   4.00000000E+001   6.41971599E-001   3.58241376E-001   6.41967052E-001
   4.50000000E+001   6.86540364E-001   3.58253711E-001   6.86538953E-001
   5.00000000E+001   7.23921656E-001   3.58260010E-001   7.23921373E-001
   5.50000000E+001   7.55501719E-001   3.58263453E-001   7.55501832E-001
   6.00000000E+001   7.82629516E-001   3.58265442E-001   7.82629750E-001
   6.50000000E+001   8.06037774E-001   3.58266646E-001   8.06038024E-001
   7.00000000E+001   8.26309197E-001   3.58267404E-001   8.26309424E-001
   7.50000000E+001   8.43964317E-001   3.58267897E-001   8.43964512E-001
   8.00000000E+001   8.59539217E-001   3.58268227E-001   8.59539380E-001
   8.50000000E+001   8.73161393E-001   3.58268453E-001   8.73161527E-001
   9.00000000E+001   8.85314929E-001   3.58268612E-001   8.85315039E-001
   9.50000000E+001   8.96022974E-001   3.58268726E-001   8.96023065E-001
   1.00000000E+002   9.05560507E-001   3.58268809E-001   9.05560581E-001
   1.05000000E+002   9.14120717E-001   3.58268870E-001   9.14120778E-001
   1.10000000E+002   9.21678718E-001   3.58268917E-001   9.21678769E-001
   1.15000000E+002   9.28537503E-001   3.58268952E-001   9.28537545E-001
   1.20000000E+002   9.34613179E-001   3.58268979E-001   9.34613214E-001
   1.25000000E+002   9.40183545E-001   3.58269000E-001   9.40183574E-001
   1.30000000E+002   9.45193274E-001   3.58269016E-001   9.45193299E-001
   1.35000000E+002   9.49745765E-001   3.58269029E-001   9.49745786E-001
   1.40000000E+002   9.53843027E-001   3.58269040E-001   9.53843045E-001
   1.45000000E+002   9.57621069E-001   3.58269049E-001   9.57621084E-001
   1.50000000E+002   9.61008318E-001   3.58269055E-001   9.61008331E-001
   1.55000000E+002   9.64142160E-001   3.58269061E-001   9.64142171E-001
   1.60000000E+002   9.66970234E-001   3.58269066E-001   9.66970244E-001
   1.65000000E+002   9.69563689E-001   3.58269070E-001   9.69563698E-001
   1.70000000E+002   9.71939066E-001   3.58269073E-001   9.71939074E-001
   1.75000000E+002   9.74091922E-001   3.58269076E-001   9.74091928E-001
   1.80000000E+002   9.76070500E-001   3.58269078E-001   9.76070506E-001
   1.85000000E+002   9.77883601E-001   3.58269080E-001   9.77883606E-001
   1.90000000E+002   9.79550723E-001   3.58269081E-001   9.79550728E-001
   1.95000000E+002   9.81104710E-001   3.58269083E-001   9.81104714E-001
   2.00000000E+002   9.82515757E-001   3.58269084E-001   9.82515760E-001
   2.05000000E+002   9.83825004E-001   3.58269085E-001   9.83825007E-001
   2.10000000E+002   9.85022952E-001   3.58269086E-001   9.85022954E-001
   2.15000000E+002   9.86105533E-001   3.58269087E-001   9.86105535E-001
   2.20000000E+002   9.87123837E-001   3.58269087E-001   9.87123839E-001
   2.25000000E+002   9.88057067E-001   3.58269088E-001   9.88057069E-001
   2.30000000E+002   9.88917840E-001   3.58269088E-001   9.88917842E-001
   2.35000000E+002   9.89720270E-001   3.58269089E-001   9.89720271E-001
   2.40000000E+002   9.90445316E-001   3.58269089E-001   9.90445317E-001
   2.45000000E+002   9.91131455E-001   3.58269090E-001   9.91131456E-001
