# ./jetvheto -in n3lo-fixed-order/H125-LHC13-R04-mb-475-mt-1725-xmur200-xmuf200-log.fxd -xQ 0.5 -out benchmarks-n3lo-smallR/H125-LHC13-R04-mb-475-mt-1725-xmur200-xmuf200-xQ050-NNLO+NNLLa.res -scheme a -order 2 -ptmax 500.01 -fixed_order 2 -loop-mass t+b
# process = H    
# collider = pp   
# rts =  13000.000
# M   =    125.000
# muR =    250.000
# muF =    250.000
# Q   =     62.500
# p   =      5.000
# include_c1_squared =   F
# loop_mass  = t+b 
# alphas(MZ) =    0.11800
# alphas(M) =    0.11264
# alphas(muR) =    0.10244
# Rjet =      0.400
# order = NNLL
# pdf name and set = PDF4LHC15_nnlo_mc.LHgrid,    0
# matching scheme = a
# total cross sections [nb] at LO, NLOdiff, NNLOdiff, N3LOdiff =     0.010658    0.014649    0.010464    0.005358
#----------------------------------------------------------------------
# the lines that follow give the jet-veto efficiencies as a function of pt
#         pt            matched eff      resummed eff     fixed-order eff
   2.00000000E+001   4.93991247E-001   5.28529355E-001   5.35127193E-001
   2.50000000E+001   5.84041916E-001   6.11309083E-001   6.12011630E-001
   3.00000000E+001   6.53764567E-001   6.69929565E-001   6.70544774E-001
   3.50000000E+001   7.08435879E-001   7.10928996E-001   7.16922826E-001
   4.00000000E+001   7.51538600E-001   7.39069705E-001   7.54454779E-001
   4.50000000E+001   7.85820306E-001   7.57887138E-001   7.85384748E-001
   5.00000000E+001   8.13424984E-001   7.70080363E-001   8.11251726E-001
   5.50000000E+001   8.35927670E-001   7.77726990E-001   8.33093904E-001
   6.00000000E+001   8.54535110E-001   7.82386883E-001   8.51667304E-001
   6.50000000E+001   8.70288939E-001   7.85170741E-001   8.67697021E-001
   7.00000000E+001   8.83818126E-001   7.86820344E-001   8.81614063E-001
   7.50000000E+001   8.95520737E-001   7.87801675E-001   8.93709135E-001
   8.00000000E+001   9.05812084E-001   7.88393866E-001   9.04350221E-001
   8.50000000E+001   9.14829389E-001   7.88759139E-001   9.13659935E-001
   9.00000000E+001   9.22820560E-001   7.88990497E-001   9.21887551E-001
   9.50000000E+001   9.29908815E-001   7.89141248E-001   9.29163519E-001
   1.00000000E+002   9.36193554E-001   7.89242313E-001   9.35596095E-001
   1.05000000E+002   9.41879580E-001   7.89311959E-001   9.41398238E-001
   1.10000000E+002   9.46954149E-001   7.89361180E-001   9.46564151E-001
   1.15000000E+002   9.51525352E-001   7.89396774E-001   9.51207413E-001
   1.20000000E+002   9.55627287E-001   7.89423047E-001   9.55366494E-001
   1.25000000E+002   9.59319092E-001   7.89442796E-001   9.59103844E-001
   1.30000000E+002   9.62656500E-001   7.89457884E-001   9.62477770E-001
   1.35000000E+002   9.65699887E-001   7.89469576E-001   9.65550615E-001
   1.40000000E+002   9.68453128E-001   7.89478754E-001   9.68327755E-001
   1.45000000E+002   9.70948809E-001   7.89486040E-001   9.70842945E-001
   1.50000000E+002   9.73230886E-001   7.89491884E-001   9.73141036E-001
   1.55000000E+002   9.75304694E-001   7.89496614E-001   9.75228063E-001
   1.60000000E+002   9.77211282E-001   7.89500475E-001   9.77145625E-001
   1.65000000E+002   9.78952863E-001   7.89503650E-001   9.78896359E-001
   1.70000000E+002   9.80539826E-001   7.89506280E-001   9.80490997E-001
   1.75000000E+002   9.81970203E-001   7.89508472E-001   9.81927840E-001
   1.80000000E+002   9.83308392E-001   7.89510309E-001   9.83271498E-001
   1.85000000E+002   9.84536774E-001   7.89511858E-001   9.84504528E-001
   1.90000000E+002   9.85647048E-001   7.89513171E-001   9.85618768E-001
   1.95000000E+002   9.86676591E-001   7.89514288E-001   9.86651708E-001
   2.00000000E+002   9.87614984E-001   7.89515244E-001   9.87593023E-001
   2.05000000E+002   9.88487434E-001   7.89516065E-001   9.88467994E-001
   2.10000000E+002   9.89293611E-001   7.89516772E-001   9.89276353E-001
   2.15000000E+002   9.90036192E-001   7.89517385E-001   9.90020830E-001
   2.20000000E+002   9.90719175E-001   7.89517917E-001   9.90705465E-001
   2.25000000E+002   9.91345596E-001   7.89518380E-001   9.91333330E-001
   2.30000000E+002   9.91934423E-001   7.89518785E-001   9.91923423E-001
   2.35000000E+002   9.92483758E-001   7.89519140E-001   9.92473871E-001
   2.40000000E+002   9.92969704E-001   7.89519453E-001   9.92960797E-001
   2.45000000E+002   9.93435271E-001   7.89519728E-001   9.93427231E-001
