# ./jetvheto -in n3lo-fixed-order/H125-LHC13-R04-heft-xmur200-xmuf200-log.fxd -xQ 0.50 -out benchmarks-n3lo-smallR/H125-LHC13-R04-heft-xmur200-xmuf200-xQ050-NNLO+NNLLb.R0-2.0.res -scheme b -order 2 -ptmax 500.01 -fixed_order 2 -small-r -R0 2.0
# process = H    
# collider = pp   
# rts =  13000.000
# M   =    125.000
# muR =    250.000
# muF =    250.000
# Q   =     62.500
# p   =      5.000
# include_c1_squared =   F
# loop_mass  = none
# alphas(MZ) =    0.11800
# alphas(M) =    0.11264
# alphas(muR) =    0.10244
# Rjet =      0.400
# order = NNLL
# pdf name and set = PDF4LHC15_nnlo_mc.LHgrid,    0
# matching scheme = b
# total cross sections [nb] at LO, NLOdiff, NNLOdiff, N3LOdiff =     0.011138    0.014625    0.010464    0.005358
#----------------------------------------------------------------------
# the lines that follow give the jet-veto efficiencies as a function of pt
#         pt            matched eff      resummed eff     fixed-order eff
   2.00000000E+001   4.34164836E-001   5.46911651E-001   3.60942428E-001
   2.50000000E+001   5.17180270E-001   6.29127335E-001   4.67866112E-001
   3.00000000E+001   5.84103935E-001   6.87129278E-001   5.49013785E-001
   3.50000000E+001   6.38683893E-001   7.27557602E-001   6.12756753E-001
   4.00000000E+001   6.83676863E-001   7.55203390E-001   6.64071100E-001
   4.50000000E+001   7.21406952E-001   7.73606669E-001   7.06413256E-001
   5.00000000E+001   7.53050102E-001   7.85462710E-001   7.41539074E-001
   5.50000000E+001   7.80088224E-001   7.92841822E-001   7.71262535E-001
   6.00000000E+001   8.03240352E-001   7.97294600E-001   7.96490466E-001
   6.50000000E+001   8.23272401E-001   7.99921463E-001   8.18120881E-001
   7.00000000E+001   8.40838826E-001   8.01453952E-001   8.36906804E-001
   7.50000000E+001   8.56199428E-001   8.02348786E-001   8.53190631E-001
   8.00000000E+001   8.69835287E-001   8.02877365E-001   8.67522112E-001
   8.50000000E+001   8.81830587E-001   8.03195828E-001   8.80041029E-001
   9.00000000E+001   8.92555676E-001   8.03392599E-001   8.91160980E-001
   9.50000000E+001   9.02063258E-001   8.03517627E-001   9.00967665E-001
   1.00000000E+002   9.10467200E-001   8.03599406E-001   9.09599568E-001
   1.05000000E+002   9.18088558E-001   8.03654463E-001   9.17395765E-001
   1.10000000E+002   9.24921001E-001   8.03692547E-001   9.24363367E-001
   1.15000000E+002   9.31035685E-001   8.03719559E-001   9.30583365E-001
   1.20000000E+002   9.36552816E-001   8.03739158E-001   9.36183194E-001
   1.25000000E+002   9.41505078E-001   8.03753673E-001   9.41200899E-001
   1.30000000E+002   9.45986660E-001   8.03764619E-001   9.45734656E-001
   1.35000000E+002   9.50100769E-001   8.03773009E-001   9.49890660E-001
   1.40000000E+002   9.53813906E-001   8.03779533E-001   9.53637677E-001
   1.45000000E+002   9.57178928E-001   8.03784671E-001   9.57030282E-001
   1.50000000E+002   9.60248077E-001   8.03788764E-001   9.60122026E-001
   1.55000000E+002   9.63050400E-001   8.03792058E-001   9.62942968E-001
   1.60000000E+002   9.65642020E-001   8.03794734E-001   9.65550019E-001
   1.65000000E+002   9.67999265E-001   8.03796925E-001   9.67920125E-001
   1.70000000E+002   9.70154014E-001   8.03798734E-001   9.70085646E-001
   1.75000000E+002   9.72107775E-001   8.03800237E-001   9.72048475E-001
   1.80000000E+002   9.73926393E-001   8.03801494E-001   9.73874759E-001
   1.85000000E+002   9.75616125E-001   8.03802551E-001   9.75571003E-001
   1.90000000E+002   9.77160379E-001   8.03803445E-001   9.77120811E-001
   1.95000000E+002   9.78591254E-001   8.03804205E-001   9.78556441E-001
   2.00000000E+002   9.79899465E-001   8.03804854E-001   9.79868740E-001
   2.05000000E+002   9.81121285E-001   8.03805411E-001   9.81094087E-001
   2.10000000E+002   9.82255398E-001   8.03805890E-001   9.82231254E-001
   2.15000000E+002   9.83310903E-001   8.03806305E-001   9.83289410E-001
   2.20000000E+002   9.84285502E-001   8.03806665E-001   9.84266320E-001
   2.25000000E+002   9.85189177E-001   8.03806978E-001   9.85172015E-001
   2.30000000E+002   9.86040698E-001   8.03807252E-001   9.86025305E-001
   2.35000000E+002   9.86837093E-001   8.03807492E-001   9.86823257E-001
   2.40000000E+002   9.87559128E-001   8.03807703E-001   9.87546663E-001
   2.45000000E+002   9.88249588E-001   8.03807889E-001   9.88238334E-001
