# ./jetvheto -in n3lo-fixed-order/H125-LHC13-R04-mb-0-mt-1725-xmur100-xmuf100-log.fxd -xQ 0.25 -out benchmarks-n3lo-smallR/H125-LHC13-R04-mb-0-mt-1725-xmur100-xmuf100-xQ025-NNLO+NNLLa.R0-2.0.res -scheme a -order 2 -ptmax 500.01 -small-r -fixed_order 2 -loop-mass t -R0 2.0
# process = H    
# collider = pp   
# rts =  13000.000
# M   =    125.000
# muR =    125.000
# muF =    125.000
# Q   =     31.250
# p   =      5.000
# include_c1_squared =   F
# loop_mass  = t   
# alphas(MZ) =    0.11800
# alphas(M) =    0.11264
# alphas(muR) =    0.11264
# Rjet =      0.400
# order = NNLL
# pdf name and set = PDF4LHC15_nnlo_mc.LHgrid,    0
# matching scheme = a
# total cross sections [nb] at LO, NLOdiff, NNLOdiff, N3LOdiff =     0.013801    0.017514    0.010146    0.003834
#----------------------------------------------------------------------
# the lines that follow give the jet-veto efficiencies as a function of pt
#         pt            matched eff      resummed eff     fixed-order eff
   2.00000000E+001   4.99435909E-001   5.45199021E-001   5.12111256E-001
   2.50000000E+001   5.84447022E-001   6.17292328E-001   5.93117916E-001
   3.00000000E+001   6.49770583E-001   6.59684290E-001   6.55183932E-001
   3.50000000E+001   7.01001301E-001   6.82751987E-001   7.04312652E-001
   4.00000000E+001   7.42058860E-001   6.94868788E-001   7.44112204E-001
   4.50000000E+001   7.75436545E-001   7.01272193E-001   7.76741158E-001
   5.00000000E+001   8.03147467E-001   7.04760155E-001   8.03999724E-001
   5.50000000E+001   8.26384665E-001   7.06736402E-001   8.26956486E-001
   6.00000000E+001   8.46188668E-001   7.07902231E-001   8.46582419E-001
   6.50000000E+001   8.63172205E-001   7.08616511E-001   8.63449624E-001
   7.00000000E+001   8.77753434E-001   7.09069390E-001   8.77952928E-001
   7.50000000E+001   8.90511469E-001   7.09365444E-001   8.90657633E-001
   8.00000000E+001   9.01675663E-001   7.09564310E-001   9.01784587E-001
   8.50000000E+001   9.11416098E-001   7.09701159E-001   9.11498483E-001
   9.00000000E+001   9.20034620E-001   7.09797381E-001   9.20097826E-001
   9.50000000E+001   9.27617278E-001   7.09866355E-001   9.27666371E-001
   1.00000000E+002   9.34378476E-001   7.09916662E-001   9.34417045E-001
   1.05000000E+002   9.40403498E-001   7.09953934E-001   9.40434122E-001
   1.10000000E+002   9.45724443E-001   7.09981943E-001   9.45748990E-001
   1.15000000E+002   9.50549498E-001   7.10003265E-001   9.50569353E-001
   1.20000000E+002   9.54851171E-001   7.10019689E-001   9.54867362E-001
   1.25000000E+002   9.58740188E-001   7.10032480E-001   9.58753493E-001
   1.30000000E+002   9.62256880E-001   7.10042540E-001   9.62267892E-001
   1.35000000E+002   9.65420244E-001   7.10050526E-001   9.65429419E-001
   1.40000000E+002   9.68280291E-001   7.10056920E-001   9.68287981E-001
   1.45000000E+002   9.70909474E-001   7.10062081E-001   9.70915959E-001
   1.50000000E+002   9.73254079E-001   7.10066276E-001   9.73259576E-001
   1.55000000E+002   9.75422073E-001   7.10069711E-001   9.75426757E-001
   1.60000000E+002   9.77401580E-001   7.10072540E-001   9.77405590E-001
   1.65000000E+002   9.79192719E-001   7.10074886E-001   9.79196168E-001
   1.70000000E+002   9.80838737E-001   7.10076842E-001   9.80841717E-001
   1.75000000E+002   9.82317968E-001   7.10078481E-001   9.82320552E-001
   1.80000000E+002   9.83690078E-001   7.10079862E-001   9.83692327E-001
   1.85000000E+002   9.84934525E-001   7.10081031E-001   9.84936490E-001
   1.90000000E+002   9.86087307E-001   7.10082025E-001   9.86089030E-001
   1.95000000E+002   9.87153207E-001   7.10082873E-001   9.87154723E-001
   2.00000000E+002   9.88118776E-001   7.10083601E-001   9.88120114E-001
   2.05000000E+002   9.89020468E-001   7.10084227E-001   9.89021653E-001
   2.10000000E+002   9.89835333E-001   7.10084768E-001   9.89836384E-001
   2.15000000E+002   9.90578699E-001   7.10085237E-001   9.90579634E-001
   2.20000000E+002   9.91276307E-001   7.10085644E-001   9.91277142E-001
   2.25000000E+002   9.91914389E-001   7.10086000E-001   9.91915136E-001
   2.30000000E+002   9.92505262E-001   7.10086312E-001   9.92505931E-001
   2.35000000E+002   9.93059578E-001   7.10086585E-001   9.93060180E-001
   2.40000000E+002   9.93556796E-001   7.10086825E-001   9.93557338E-001
   2.45000000E+002   9.94024617E-001   7.10087038E-001   9.94025107E-001
