# ./jetvheto -in n3lo-fixed-order/H125-LHC13-R04-mb-475-mt-1725-xmur050-xmuf025-log.fxd -xQ 0.25 -out benchmarks-n3lo-smallR/H125-LHC13-R04-mb-475-mt-1725-xmur050-xmuf025-xQ025-N3LO+NNLLa.res -scheme a -order 2 -ptmax 500.01 -fixed_order 3 -loop-mass t+b
# process = H    
# collider = pp   
# rts =  13000.000
# M   =    125.000
# muR =     62.500
# muF =     31.250
# Q   =     31.250
# p   =      5.000
# include_c1_squared =   F
# loop_mass  = t+b 
# alphas(MZ) =    0.11800
# alphas(M) =    0.11264
# alphas(muR) =    0.12516
# Rjet =      0.400
# order = NNLL
# pdf name and set = PDF4LHC15_nnlo_mc.LHgrid,    0
# matching scheme = a
# total cross sections [nb] at LO, NLOdiff, NNLOdiff, N3LOdiff =     0.012926    0.020318    0.009723    0.001827
#----------------------------------------------------------------------
# the lines that follow give the jet-veto efficiencies as a function of pt
#         pt            matched eff      resummed eff     fixed-order eff
   2.00000000E+001   4.34220107E-001   4.61507387E-001   4.39805765E-001
   2.50000000E+001   5.24343579E-001   5.30003528E-001   5.27879518E-001
   3.00000000E+001   5.95745362E-001   5.70867920E-001   5.97763702E-001
   3.50000000E+001   6.53329332E-001   5.93324378E-001   6.54452868E-001
   4.00000000E+001   7.01006515E-001   6.05191897E-001   7.01663673E-001
   4.50000000E+001   7.41190758E-001   6.11485872E-001   7.41596500E-001
   5.00000000E+001   7.74717129E-001   6.14921180E-001   7.74973831E-001
   5.50000000E+001   8.03929189E-001   6.16869859E-001   8.04101557E-001
   6.00000000E+001   8.28140728E-001   6.18020210E-001   8.28256473E-001
   6.50000000E+001   8.47680756E-001   6.18725299E-001   8.47757528E-001
   7.00000000E+001   8.65998950E-001   6.19172467E-001   8.66053392E-001
   7.50000000E+001   8.81579782E-001   6.19464837E-001   8.81619018E-001
   8.00000000E+001   8.94627826E-001   6.19661250E-001   8.94656024E-001
   8.50000000E+001   9.06663379E-001   6.19796420E-001   9.06684371E-001
   9.00000000E+001   9.17169664E-001   6.19891467E-001   9.17185507E-001
   9.50000000E+001   9.25069232E-001   6.19959602E-001   9.25080912E-001
   1.00000000E+002   9.33592642E-001   6.20009298E-001   9.33601797E-001
   1.05000000E+002   9.40238836E-001   6.20046118E-001   9.40245876E-001
   1.10000000E+002   9.46945169E-001   6.20073787E-001   9.46950790E-001
   1.15000000E+002   9.52726230E-001   6.20094851E-001   9.52730725E-001
   1.20000000E+002   9.57367678E-001   6.20111077E-001   9.57371245E-001
   1.25000000E+002   9.61394404E-001   6.20123713E-001   9.61397255E-001
   1.30000000E+002   9.65485812E-001   6.20133652E-001   9.65488145E-001
   1.35000000E+002   9.68879399E-001   6.20141542E-001   9.68881306E-001
   1.40000000E+002   9.72052721E-001   6.20147859E-001   9.72054298E-001
   1.45000000E+002   9.74991300E-001   6.20152957E-001   9.74992614E-001
   1.50000000E+002   9.77507357E-001   6.20157101E-001   9.77508455E-001
   1.55000000E+002   9.79814412E-001   6.20160494E-001   9.79815336E-001
   1.60000000E+002   9.82215362E-001   6.20163290E-001   9.82216151E-001
   1.65000000E+002   9.83995698E-001   6.20165608E-001   9.83996367E-001
   1.70000000E+002   9.85488046E-001   6.20167540E-001   9.85488613E-001
   1.75000000E+002   9.87248629E-001   6.20169159E-001   9.87249121E-001
   1.80000000E+002   9.88451400E-001   6.20170524E-001   9.88451821E-001
   1.85000000E+002   9.89819015E-001   6.20171678E-001   9.89819381E-001
   1.90000000E+002   9.90908509E-001   6.20172660E-001   9.90908828E-001
   1.95000000E+002   9.92062502E-001   6.20173498E-001   9.92062781E-001
   2.00000000E+002   9.92895226E-001   6.20174217E-001   9.92895469E-001
   2.05000000E+002   9.93708615E-001   6.20174836E-001   9.93708828E-001
   2.10000000E+002   9.94443218E-001   6.20175370E-001   9.94443406E-001
   2.15000000E+002   9.95259813E-001   6.20175833E-001   9.95259980E-001
   2.20000000E+002   9.95836107E-001   6.20176236E-001   9.95836254E-001
   2.25000000E+002   9.96497443E-001   6.20176588E-001   9.96497575E-001
   2.30000000E+002   9.96975817E-001   6.20176895E-001   9.96975934E-001
   2.35000000E+002   9.97332109E-001   6.20177165E-001   9.97332214E-001
   2.40000000E+002   9.97830253E-001   6.20177403E-001   9.97830347E-001
   2.45000000E+002   9.98235666E-001   6.20177613E-001   9.98235750E-001
