# ./jetvheto -in n3lo-fixed-order/H125-LHC13-R04-mb-0-mt-1725-xmur100-xmuf100-log.fxd -xQ 0.25 -out benchmarks-n3lo-smallR/H125-LHC13-R04-mb-0-mt-1725-xmur100-xmuf100-xQ025-NNLO+NNLLb.R0-0.5.res -scheme b -order 2 -ptmax 500.01 -small-r -fixed_order 2 -loop-mass t -R0 0.5
# process = H    
# collider = pp   
# rts =  13000.000
# M   =    125.000
# muR =    125.000
# muF =    125.000
# Q   =     31.250
# p   =      5.000
# include_c1_squared =   F
# loop_mass  = t   
# alphas(MZ) =    0.11800
# alphas(M) =    0.11264
# alphas(muR) =    0.11264
# Rjet =      0.400
# order = NNLL
# pdf name and set = PDF4LHC15_nnlo_mc.LHgrid,    0
# matching scheme = b
# total cross sections [nb] at LO, NLOdiff, NNLOdiff, N3LOdiff =     0.013801    0.017514    0.010146    0.003834
#----------------------------------------------------------------------
# the lines that follow give the jet-veto efficiencies as a function of pt
#         pt            matched eff      resummed eff     fixed-order eff
   2.00000000E+001   4.04514261E-001   5.42359459E-001   3.54033455E-001
   2.50000000E+001   4.87133457E-001   6.15688582E-001   4.61286580E-001
   3.00000000E+001   5.56352785E-001   6.58815570E-001   5.43462220E-001
   3.50000000E+001   6.14918534E-001   6.82282301E-001   6.08508831E-001
   4.00000000E+001   6.64461685E-001   6.94607840E-001   6.61203589E-001
   4.50000000E+001   7.06125751E-001   7.01121222E-001   7.04404447E-001
   5.00000000E+001   7.41444697E-001   7.04668976E-001   7.40494892E-001
   5.50000000E+001   7.71437120E-001   7.06679062E-001   7.70889733E-001
   6.00000000E+001   7.97202497E-001   7.07864840E-001   7.96874542E-001
   6.50000000E+001   8.19410478E-001   7.08591337E-001   8.19206785E-001
   7.00000000E+001   8.38539954E-001   7.09051960E-001   8.38409214E-001
   7.50000000E+001   8.55316675E-001   7.09353076E-001   8.55230292E-001
   8.00000000E+001   8.70020985E-001   7.09555342E-001   8.69962422E-001
   8.50000000E+001   8.82864343E-001   7.09694530E-001   8.82823656E-001
   9.00000000E+001   8.94238060E-001   7.09792397E-001   8.94209219E-001
   9.50000000E+001   9.04250857E-001   7.09862550E-001   9.04230001E-001
   1.00000000E+002   9.13183271E-001   7.09913717E-001   9.13167919E-001
   1.05000000E+002   9.21146032E-001   7.09951626E-001   9.21134551E-001
   1.10000000E+002   9.28180175E-001   7.09980113E-001   9.28171457E-001
   1.15000000E+002   9.34560343E-001   7.10001799E-001   9.34553636E-001
   1.20000000E+002   9.40249443E-001   7.10018505E-001   9.40244216E-001
   1.25000000E+002   9.45393588E-001   7.10031514E-001   9.45389469E-001
   1.30000000E+002   9.50045828E-001   7.10041746E-001   9.50042546E-001
   1.35000000E+002   9.54231059E-001   7.10049869E-001   9.54228420E-001
   1.40000000E+002   9.58015311E-001   7.10056372E-001   9.58013167E-001
   1.45000000E+002   9.61494374E-001   7.10061621E-001   9.61492620E-001
   1.50000000E+002   9.64597026E-001   7.10065888E-001   9.64595577E-001
   1.55000000E+002   9.67466137E-001   7.10069381E-001   9.67464933E-001
   1.60000000E+002   9.70085924E-001   7.10072259E-001   9.70084916E-001
   1.65000000E+002   9.72456497E-001   7.10074645E-001   9.72455647E-001
   1.70000000E+002   9.74635080E-001   7.10076634E-001   9.74634361E-001
   1.75000000E+002   9.76592958E-001   7.10078302E-001   9.76592344E-001
   1.80000000E+002   9.78409106E-001   7.10079706E-001   9.78408580E-001
   1.85000000E+002   9.80056309E-001   7.10080895E-001   9.80055856E-001
   1.90000000E+002   9.81582215E-001   7.10081906E-001   9.81581823E-001
   1.95000000E+002   9.82993145E-001   7.10082769E-001   9.82992805E-001
   2.00000000E+002   9.84271283E-001   7.10083509E-001   9.84270986E-001
   2.05000000E+002   9.85464887E-001   7.10084146E-001   9.85464627E-001
   2.10000000E+002   9.86543563E-001   7.10084696E-001   9.86543334E-001
   2.15000000E+002   9.87527602E-001   7.10085173E-001   9.87527400E-001
   2.20000000E+002   9.88451082E-001   7.10085587E-001   9.88450903E-001
   2.25000000E+002   9.89295768E-001   7.10085949E-001   9.89295609E-001
   2.30000000E+002   9.90077966E-001   7.10086266E-001   9.90077825E-001
   2.35000000E+002   9.90811778E-001   7.10086544E-001   9.90811652E-001
   2.40000000E+002   9.91470005E-001   7.10086788E-001   9.91469891E-001
   2.45000000E+002   9.92089320E-001   7.10087004E-001   9.92089219E-001
