# python build-Q2-histos.py --mtQ1file ../../JetVHeto/benchmarks-n3lo-smallR/H125-LHC13-R04-mb-0-mt-1725-xmur050-xmuf100-xQ050-NNLO+NNLLa.R0-1.0.res --mtQ2file ../../JetVHeto/benchmarks-n3lo-smallR/H125-LHC13-R04-mb-0-mt-1725-xmur050-xmuf100-xQ0625-NNLO+NNLLa.R0-1.0.res --mtmbQ2file ../../JetVHeto/benchmarks-n3lo-smallR/H125-LHC13-R04-mb-475-mt-1725-xmur050-xmuf100-xQ0625-NNLO+NNLLa.R0-1.0.res
# process = H    
# collider = pp   
# rts =  13000.000
# M   =    125.000
# muR =     62.500
# muF =    125.000
# Q1  =  62.500; Q2  =  7.812
# p   =      5.000
# include_c1_squared =   F
# loop_mass  = t+b 
# alphas(MZ) =    0.11800
# alphas(M) =    0.11264
# alphas(muR) =    0.12516
# Rjet =      0.400
# order = NNLL
# pdf name and set = PDF4LHC15_nnlo_mc.LHgrid,    0
# matching scheme = a
# total cross sections [nb] at LO, NLOdiff, NNLOdiff, N3LOdiff =     0.015023    0.020252    0.008553    0.000949
#----------------------------------------------------------------------
# the lines that follow give the jet-veto efficiencies as a function of pt
#         pt            matched eff      resummed eff     fixed-order eff
20.0 0.475407071144 0.526442688477 0.452947522
25.0 0.562086342449 0.606453992695 0.540649579
30.0 0.629758361796 0.662356867468 0.609146724
35.0 0.683360959225 0.700914512582 0.664036606
40.0 0.726233819354 0.726961400971 0.708772946
45.0 0.760989629362 0.744049863697 0.745785109
50.0 0.789626022142 0.754861593637 0.776823295
55.0 0.813477375515 0.761434161122 0.803003904
60.0 0.833874104009 0.765279086768 0.825500055
65.0 0.851462231789 0.767457133948 0.844871993
70.0 0.866726313265 0.768662508178 0.861589128
75.0 0.880118571444 0.769320425592 0.876128533
80.0 0.892012334871 0.769677539323 0.888912118
85.0 0.902452741713 0.769871370244 0.900035777
90.0 0.911849979525 0.769976920477 0.909955619
95.0 0.920151380139 0.770034620665 0.918656833
100.0 0.927566010391 0.77006622716 0.92637822
105.0 0.934230900547 0.770083491339 0.933279806
110.0 0.940122051039 0.770092819827 0.939354824
115.0 0.945478806493 0.770097729119 0.944855267
120.0 0.950221480446 0.770100175131 0.949711111
125.0 0.954564123815 0.770101255784 0.954143526
130.0 0.958464118334 0.770101586709 0.958115228
135.0 0.962014378951 0.770101521246 0.9617232
140.0 0.96517642873 0.770101253516 0.964931972
145.0 0.968120772977 0.770100898786 0.967914407
150.0 0.970724121773 0.770100517836 0.970548997
155.0 0.973131398273 0.770100144326 0.97298204
160.0 0.975318107847 0.77009979284 0.975190129
165.0 0.977303880379 0.770099471818 0.977193733
170.0 0.979130933091 0.770099185404 0.979035734
175.0 0.980771107351 0.770098931503 0.980688502
180.0 0.982285358797 0.770098705968 0.982213406
185.0 0.983660377673 0.770098509749 0.983597479
190.0 0.984928574299 0.770098336653 0.984873402
195.0 0.986114591431 0.770098183532 0.986066038
200.0 0.987182045631 0.770098051337 0.987139184
205.0 0.98817639612 0.770097935923 0.988138448
210.0 0.989079233191 0.770097832094 0.98904554
215.0 0.989888871259 0.770097743949 0.989858874
220.0 0.990657233373 0.770097664242 0.990630459
225.0 0.991357419412 0.770097596022 0.991333461
230.0 0.992002774547 0.770097533096 0.991981285
235.0 0.992610134534 0.770097479608 0.992590817
240.0 0.993149845519 0.770097431365 0.993132441
245.0 0.993663584845 0.770097389365 0.993647873
