# ./jetvheto -in n3lo-fixed-order/H125-LHC13-R04-mb-475-mt-1725-xmur100-xmuf050-log.fxd -xQ 0.25 -out benchmarks-n3lo-smallR/H125-LHC13-R04-mb-475-mt-1725-xmur100-xmuf050-xQ025-N3LO+NNLLa.R0-1.5.res -scheme a -order 2 -ptmax 500.01 -fixed_order 3 -small-r -loop-mass t+b -R0 1.5
# process = H    
# collider = pp   
# rts =  13000.000
# M   =    125.000
# muR =    125.000
# muF =     62.500
# Q   =     31.250
# p   =      5.000
# include_c1_squared =   F
# loop_mass  = t+b 
# alphas(MZ) =    0.11800
# alphas(M) =    0.11264
# alphas(muR) =    0.11264
# Rjet =      0.400
# order = NNLL
# pdf name and set = PDF4LHC15_nnlo_mc.LHgrid,    0
# matching scheme = a
# total cross sections [nb] at LO, NLOdiff, NNLOdiff, N3LOdiff =     0.011575    0.016866    0.010424    0.004163
#----------------------------------------------------------------------
# the lines that follow give the jet-veto efficiencies as a function of pt
#         pt            matched eff      resummed eff     fixed-order eff
   2.00000000E+001   4.47022721E-001   5.10773070E-001   4.53573922E-001
   2.50000000E+001   5.33530660E-001   5.81777016E-001   5.38019533E-001
   3.00000000E+001   6.05077025E-001   6.23838151E-001   6.08084402E-001
   3.50000000E+001   6.62213261E-001   6.46847324E-001   6.64092911E-001
   4.00000000E+001   7.07317646E-001   6.58973226E-001   7.08459732E-001
   4.50000000E+001   7.46095381E-001   6.65393468E-001   7.46824661E-001
   5.00000000E+001   7.77731176E-001   6.68894368E-001   7.78201838E-001
   5.50000000E+001   8.04939348E-001   6.70879175E-001   8.05254341E-001
   6.00000000E+001   8.27670663E-001   6.72050479E-001   8.27885254E-001
   6.50000000E+001   8.48093093E-001   6.72768272E-001   8.48244754E-001
   7.00000000E+001   8.64686499E-001   6.73223440E-001   8.64794164E-001
   7.50000000E+001   8.79330812E-001   6.73521018E-001   8.79409129E-001
   8.00000000E+001   8.92433424E-001   6.73720919E-001   8.92491595E-001
   8.50000000E+001   9.04058949E-001   6.73858486E-001   9.04102870E-001
   9.00000000E+001   9.14259121E-001   6.73955215E-001   9.14292757E-001
   9.50000000E+001   9.22769661E-001   6.74024555E-001   9.22795598E-001
   1.00000000E+002   9.30659722E-001   6.74075129E-001   9.30680042E-001
   1.05000000E+002   9.37280490E-001   6.74112599E-001   9.37296509E-001
   1.10000000E+002   9.43255676E-001   6.74140757E-001   9.43268451E-001
   1.15000000E+002   9.48811966E-001   6.74162192E-001   9.48822273E-001
   1.20000000E+002   9.53787072E-001   6.74178705E-001   9.53795459E-001
   1.25000000E+002   9.58084285E-001   6.74191563E-001   9.58091146E-001
   1.30000000E+002   9.61858472E-001   6.74201677E-001   9.61864125E-001
   1.35000000E+002   9.65466368E-001   6.74209706E-001   9.65471069E-001
   1.40000000E+002   9.68752514E-001   6.74216135E-001   9.68756448E-001
   1.45000000E+002   9.71639722E-001   6.74221322E-001   9.71643032E-001
   1.50000000E+002   9.74054883E-001   6.74225540E-001   9.74057675E-001
   1.55000000E+002   9.76557469E-001   6.74228993E-001   9.76559846E-001
   1.60000000E+002   9.78808755E-001   6.74231838E-001   9.78810789E-001
   1.65000000E+002   9.80455916E-001   6.74234197E-001   9.80457656E-001
   1.70000000E+002   9.82260968E-001   6.74236163E-001   9.82262469E-001
   1.75000000E+002   9.83949041E-001   6.74237811E-001   9.83950342E-001
   1.80000000E+002   9.85327518E-001   6.74239199E-001   9.85328648E-001
   1.85000000E+002   9.86603913E-001   6.74240374E-001   9.86604898E-001
   1.90000000E+002   9.87842822E-001   6.74241373E-001   9.87843685E-001
   1.95000000E+002   9.88980159E-001   6.74242226E-001   9.88980917E-001
   2.00000000E+002   9.89997141E-001   6.74242958E-001   9.89997809E-001
   2.05000000E+002   9.90861557E-001   6.74243587E-001   9.90862147E-001
   2.10000000E+002   9.91684284E-001   6.74244131E-001   9.91684807E-001
   2.15000000E+002   9.92387328E-001   6.74244602E-001   9.92387793E-001
   2.20000000E+002   9.93216720E-001   6.74245012E-001   9.93217135E-001
   2.25000000E+002   9.93760117E-001   6.74245370E-001   9.93760488E-001
   2.30000000E+002   9.94353616E-001   6.74245683E-001   9.94353948E-001
   2.35000000E+002   9.94831143E-001   6.74245958E-001   9.94831441E-001
   2.40000000E+002   9.95312443E-001   6.74246200E-001   9.95312711E-001
   2.45000000E+002   9.95811903E-001   6.74246413E-001   9.95812145E-001
