# ./jetvheto -in n3lo-fixed-order/H125-LHC13-R04-mb-475-mt-1725-xmur050-xmuf050-log.fxd -xQ 0.25 -out benchmarks-n3lo-smallR/H125-LHC13-R04-mb-475-mt-1725-xmur050-xmuf050-xQ025-N3LO+NNLLb.res -scheme b -order 2 -ptmax 500.01 -fixed_order 3 -loop-mass t+b
# process = H    
# collider = pp   
# rts =  13000.000
# M   =    125.000
# muR =     62.500
# muF =     62.500
# Q   =     31.250
# p   =      5.000
# include_c1_squared =   F
# loop_mass  = t+b 
# alphas(MZ) =    0.11800
# alphas(M) =    0.11264
# alphas(muR) =    0.12516
# Rjet =      0.400
# order = NNLL
# pdf name and set = PDF4LHC15_nnlo_mc.LHgrid,    0
# matching scheme = b
# total cross sections [nb] at LO, NLOdiff, NNLOdiff, N3LOdiff =     0.014147    0.020254    0.008998    0.001413
#----------------------------------------------------------------------
# the lines that follow give the jet-veto efficiencies as a function of pt
#         pt            matched eff      resummed eff     fixed-order eff
   2.00000000E+001   4.27676082E-001   4.70688378E-001   4.22880362E-001
   2.50000000E+001   5.13751497E-001   5.37428246E-001   5.10871357E-001
   3.00000000E+001   5.87867664E-001   5.76940207E-001   5.86554172E-001
   3.50000000E+001   6.47617583E-001   5.98542631E-001   6.46974526E-001
   4.00000000E+001   6.94430512E-001   6.09922716E-001   6.94053894E-001
   4.50000000E+001   7.35771354E-001   6.15946657E-001   7.35572065E-001
   5.00000000E+001   7.69106167E-001   6.19231012E-001   7.68984657E-001
   5.50000000E+001   7.98145338E-001   6.21092906E-001   7.98072300E-001
   6.00000000E+001   8.22106357E-001   6.22191623E-001   8.22057983E-001
   6.50000000E+001   8.44190453E-001   6.22864916E-001   8.44160448E-001
   7.00000000E+001   8.61419481E-001   6.23291858E-001   8.61397413E-001
   7.50000000E+001   8.76805657E-001   6.23570979E-001   8.76789719E-001
   8.00000000E+001   8.90703426E-001   6.23758481E-001   8.90691953E-001
   8.50000000E+001   9.03058741E-001   6.23887513E-001   9.03050366E-001
   9.00000000E+001   9.13902701E-001   6.23978242E-001   9.13896477E-001
   9.50000000E+001   9.22644528E-001   6.24043279E-001   9.22639584E-001
   1.00000000E+002   9.30927922E-001   6.24090716E-001   9.30924075E-001
   1.05000000E+002   9.37622107E-001   6.24125861E-001   9.37618957E-001
   1.10000000E+002   9.43723485E-001   6.24152272E-001   9.43720915E-001
   1.15000000E+002   9.49504165E-001   6.24172377E-001   9.49502090E-001
   1.20000000E+002   9.54680557E-001   6.24187865E-001   9.54678868E-001
   1.25000000E+002   9.59005232E-001   6.24199926E-001   9.59003817E-001
   1.30000000E+002   9.62765306E-001   6.24209413E-001   9.62764111E-001
   1.35000000E+002   9.66491454E-001   6.24216943E-001   9.66490458E-001
   1.40000000E+002   9.69881534E-001   6.24222973E-001   9.69880698E-001
   1.45000000E+002   9.72808070E-001   6.24227839E-001   9.72807360E-001
   1.50000000E+002   9.75103523E-001   6.24231795E-001   9.75102905E-001
   1.55000000E+002   9.77709292E-001   6.24235034E-001   9.77708768E-001
   1.60000000E+002   9.80039238E-001   6.24237702E-001   9.80038790E-001
   1.65000000E+002   9.81491008E-001   6.24239914E-001   9.81490611E-001
   1.70000000E+002   9.83324661E-001   6.24241758E-001   9.83324317E-001
   1.75000000E+002   9.85049592E-001   6.24243304E-001   9.85049293E-001
   1.80000000E+002   9.86367828E-001   6.24244606E-001   9.86367565E-001
   1.85000000E+002   9.87584192E-001   6.24245708E-001   9.87583960E-001
   1.90000000E+002   9.88820073E-001   6.24246645E-001   9.88819869E-001
   1.95000000E+002   9.89958412E-001   6.24247446E-001   9.89958231E-001
   2.00000000E+002   9.90961568E-001   6.24248132E-001   9.90961409E-001
   2.05000000E+002   9.91762868E-001   6.24248722E-001   9.91762726E-001
   2.10000000E+002   9.92561006E-001   6.24249232E-001   9.92560879E-001
   2.15000000E+002   9.93188283E-001   6.24249674E-001   9.93188169E-001
   2.20000000E+002   9.94072537E-001   6.24250059E-001   9.94072436E-001
   2.25000000E+002   9.94534149E-001   6.24250394E-001   9.94534058E-001
   2.30000000E+002   9.95094780E-001   6.24250688E-001   9.95094697E-001
   2.35000000E+002   9.95512602E-001   6.24250946E-001   9.95512527E-001
   2.40000000E+002   9.95960703E-001   6.24251172E-001   9.95960635E-001
   2.45000000E+002   9.96474619E-001   6.24251373E-001   9.96474558E-001
