# ./jetvheto -in n3lo-fixed-order/H125-LHC13-R04-mb-475-mt-1725-xmur100-xmuf100-log.fxd -xQ 0.333 -out benchmarks-n3lo-smallR/H125-LHC13-R04-mb-475-mt-1725-xmur100-xmuf100-xQ033-NNLO+NNLLa.R0-1.5.res -scheme a -order 2 -ptmax 500.01 -fixed_order 2 -small-r -loop-mass t+b -R0 1.5
# process = H    
# collider = pp   
# rts =  13000.000
# M   =    125.000
# muR =    125.000
# muF =    125.000
# Q   =     41.625
# p   =      5.000
# include_c1_squared =   F
# loop_mass  = t+b 
# alphas(MZ) =    0.11800
# alphas(M) =    0.11264
# alphas(muR) =    0.11264
# Rjet =      0.400
# order = NNLL
# pdf name and set = PDF4LHC15_nnlo_mc.LHgrid,    0
# matching scheme = a
# total cross sections [nb] at LO, NLOdiff, NNLOdiff, N3LOdiff =     0.012292    0.016994    0.010146    0.003834
#----------------------------------------------------------------------
# the lines that follow give the jet-veto efficiencies as a function of pt
#         pt            matched eff      resummed eff     fixed-order eff
   2.00000000E+001   4.74838133E-001   5.08091780E-001   4.93150502E-001
   2.50000000E+001   5.61891386E-001   5.84249796E-001   5.75024850E-001
   3.00000000E+001   6.29914124E-001   6.35608988E-001   6.38301171E-001
   3.50000000E+001   6.83759801E-001   6.68802747E-001   6.88801162E-001
   4.00000000E+001   7.26809777E-001   6.89362724E-001   7.29800784E-001
   4.50000000E+001   7.61905412E-001   7.01725715E-001   7.63713984E-001
   5.00000000E+001   7.91020006E-001   7.09086505E-001   7.92155543E-001
   5.50000000E+001   8.15426037E-001   7.13503482E-001   8.16168137E-001
   6.00000000E+001   8.36293947E-001   7.16205160E-001   8.36797648E-001
   6.50000000E+001   8.54231605E-001   7.17898732E-001   8.54584097E-001
   7.00000000E+001   8.69712750E-001   7.18988403E-001   8.69965602E-001
   7.50000000E+001   8.83169252E-001   7.19707630E-001   8.83354565E-001
   8.00000000E+001   8.95012101E-001   7.20193875E-001   8.95150407E-001
   8.50000000E+001   9.05341707E-001   7.20529962E-001   9.05446499E-001
   9.00000000E+001   9.14550314E-001   7.20767005E-001   9.14630889E-001
   9.50000000E+001   9.22646080E-001   7.20937296E-001   9.22708788E-001
   1.00000000E+002   9.29843873E-001   7.21061698E-001   9.29893229E-001
   1.05000000E+002   9.36291811E-001   7.21153972E-001   9.36331059E-001
   1.10000000E+002   9.41976904E-001   7.21223374E-001   9.42008406E-001
   1.15000000E+002   9.47130437E-001   7.21276243E-001   9.47155949E-001
   1.20000000E+002   9.51688901E-001   7.21316989E-001   9.51709725E-001
   1.25000000E+002   9.55860510E-001   7.21348732E-001   9.55877636E-001
   1.30000000E+002   9.59606558E-001   7.21373706E-001   9.59620741E-001
   1.35000000E+002   9.63009938E-001   7.21393537E-001   9.63021762E-001
   1.40000000E+002   9.66058787E-001   7.21409417E-001   9.66068699E-001
   1.45000000E+002   9.68878506E-001   7.21422235E-001   9.68886869E-001
   1.50000000E+002   9.71392107E-001   7.21432658E-001   9.71399196E-001
   1.55000000E+002   9.73715910E-001   7.21441192E-001   9.73721950E-001
   1.60000000E+002   9.75817433E-001   7.21448223E-001   9.75822606E-001
   1.65000000E+002   9.77736780E-001   7.21454053E-001   9.77741229E-001
   1.70000000E+002   9.79497181E-001   7.21458913E-001   9.79501024E-001
   1.75000000E+002   9.81086556E-001   7.21462987E-001   9.81089888E-001
   1.80000000E+002   9.82549391E-001   7.21466418E-001   9.82552292E-001
   1.85000000E+002   9.83885009E-001   7.21469323E-001   9.83887543E-001
   1.90000000E+002   9.85114265E-001   7.21471793E-001   9.85116487E-001
   1.95000000E+002   9.86261279E-001   7.21473902E-001   9.86263234E-001
   2.00000000E+002   9.87299209E-001   7.21475711E-001   9.87300933E-001
   2.05000000E+002   9.88263532E-001   7.21477267E-001   9.88265058E-001
   2.10000000E+002   9.89143236E-001   7.21478612E-001   9.89144590E-001
   2.15000000E+002   9.89935882E-001   7.21479777E-001   9.89937088E-001
   2.20000000E+002   9.90683840E-001   7.21480791E-001   9.90684915E-001
   2.25000000E+002   9.91367802E-001   7.21481675E-001   9.91368764E-001
   2.30000000E+002   9.91998438E-001   7.21482449E-001   9.91999301E-001
   2.35000000E+002   9.92588371E-001   7.21483128E-001   9.92589146E-001
   2.40000000E+002   9.93118086E-001   7.21483726E-001   9.93118784E-001
   2.45000000E+002   9.93620417E-001   7.21484254E-001   9.93621047E-001
