# ./jetvheto -in n3lo-fixed-order/H125-LHC13-R04-heft-xmur050-xmuf050-log.fxd -xQ 0.25 -out benchmarks-n3lo-smallR/H125-LHC13-R04-heft-xmur050-xmuf050-xQ025-N3LO+NNLLb.R0-2.0.res -scheme b -order 2 -ptmax 500.01 -fixed_order 3 -small-r -R0 2.0
# process = H    
# collider = pp   
# rts =  13000.000
# M   =    125.000
# muR =     62.500
# muF =     62.500
# Q   =     31.250
# p   =      5.000
# include_c1_squared =   F
# loop_mass  = none
# alphas(MZ) =    0.11800
# alphas(M) =    0.11264
# alphas(muR) =    0.12516
# Rjet =      0.400
# order = NNLL
# pdf name and set = PDF4LHC15_nnlo_mc.LHgrid,    0
# matching scheme = b
# total cross sections [nb] at LO, NLOdiff, NNLOdiff, N3LOdiff =     0.015055    0.019611    0.008998    0.001413
#----------------------------------------------------------------------
# the lines that follow give the jet-veto efficiencies as a function of pt
#         pt            matched eff      resummed eff     fixed-order eff
   2.00000000E+001   4.40990436E-001   4.94605348E-001   4.32272620E-001
   2.50000000E+001   5.25164566E-001   5.62556567E-001   5.20076688E-001
   3.00000000E+001   5.97740989E-001   6.02806172E-001   5.95188306E-001
   3.50000000E+001   6.55996572E-001   6.24825180E-001   6.54648121E-001
   4.00000000E+001   7.01671014E-001   6.36429788E-001   7.00880952E-001
   4.50000000E+001   7.41808036E-001   6.42574216E-001   7.41355940E-001
   5.00000000E+001   7.74082155E-001   6.45924781E-001   7.73800605E-001
   5.50000000E+001   8.02229227E-001   6.47824378E-001   8.02051238E-001
   6.00000000E+001   8.25295935E-001   6.48945404E-001   8.25176712E-001
   6.50000000E+001   8.46629773E-001   6.49632389E-001   8.46550538E-001
   7.00000000E+001   8.63167862E-001   6.50068023E-001   8.63110860E-001
   7.50000000E+001   8.77935490E-001   6.50352830E-001   8.77894218E-001
   8.00000000E+001   8.91251812E-001   6.50544152E-001   8.91221610E-001
   8.50000000E+001   9.03059247E-001   6.50675815E-001   9.03036791E-001
   9.00000000E+001   9.13499739E-001   6.50768393E-001   9.13482770E-001
   9.50000000E+001   9.21866923E-001   6.50834757E-001   9.21853677E-001
   1.00000000E+002   9.29778430E-001   6.50883161E-001   9.29768082E-001
   1.05000000E+002   9.36119985E-001   6.50919023E-001   9.36111694E-001
   1.10000000E+002   9.41967435E-001   6.50945972E-001   9.41960757E-001
   1.15000000E+002   9.47461593E-001   6.50966488E-001   9.47456202E-001
   1.20000000E+002   9.52418273E-001   6.50982292E-001   9.52413885E-001
   1.25000000E+002   9.56508818E-001   6.50994599E-001   9.56505189E-001
   1.30000000E+002   9.60085238E-001   6.51004279E-001   9.60082213E-001
   1.35000000E+002   9.63661475E-001   6.51011963E-001   9.63658956E-001
   1.40000000E+002   9.66898850E-001   6.51018116E-001   9.66896738E-001
   1.45000000E+002   9.69675045E-001   6.51023081E-001   9.69673261E-001
   1.50000000E+002   9.71844452E-001   6.51027118E-001   9.71842925E-001
   1.55000000E+002   9.74324346E-001   6.51030422E-001   9.74323047E-001
   1.60000000E+002   9.76570037E-001   6.51033145E-001   9.76568926E-001
   1.65000000E+002   9.77945214E-001   6.51035403E-001   9.77944247E-001
   1.70000000E+002   9.79733515E-001   6.51037285E-001   9.79732679E-001
   1.75000000E+002   9.81408449E-001   6.51038862E-001   9.81407724E-001
   1.80000000E+002   9.82698923E-001   6.51040190E-001   9.82698288E-001
   1.85000000E+002   9.83879494E-001   6.51041315E-001   9.83878937E-001
   1.90000000E+002   9.85097855E-001   6.51042271E-001   9.85097366E-001
   1.95000000E+002   9.86221035E-001   6.51043088E-001   9.86220604E-001
   2.00000000E+002   9.87223614E-001   6.51043788E-001   9.87223233E-001
   2.05000000E+002   9.88036994E-001   6.51044390E-001   9.88036656E-001
   2.10000000E+002   9.88861794E-001   6.51044911E-001   9.88861494E-001
   2.15000000E+002   9.89504545E-001   6.51045362E-001   9.89504277E-001
   2.20000000E+002   9.90408320E-001   6.51045754E-001   9.90408081E-001
   2.25000000E+002   9.90903009E-001   6.51046097E-001   9.90902794E-001
   2.30000000E+002   9.91502412E-001   6.51046396E-001   9.91502219E-001
   2.35000000E+002   9.91961442E-001   6.51046659E-001   9.91961268E-001
   2.40000000E+002   9.92454206E-001   6.51046891E-001   9.92454049E-001
   2.45000000E+002   9.93024296E-001   6.51047095E-001   9.93024154E-001
