# ./jetvheto -in n3lo-fixed-order/H125-LHC13-R04-heft-xmur050-xmuf050-log.fxd -xQ 0.75 -out benchmarks-n3lo-smallR/H125-LHC13-R04-heft-xmur050-xmuf050-xQ075-NNLO+NNLLb.R0-1.0.res -scheme b -order 2 -ptmax 500.01 -fixed_order 2 -small-r -R0 1.0
# process = H    
# collider = pp   
# rts =  13000.000
# M   =    125.000
# muR =     62.500
# muF =     62.500
# Q   =     93.750
# p   =      5.000
# include_c1_squared =   F
# loop_mass  = none
# alphas(MZ) =    0.11800
# alphas(M) =    0.11264
# alphas(muR) =    0.12516
# Rjet =      0.400
# order = NNLL
# pdf name and set = PDF4LHC15_nnlo_mc.LHgrid,    0
# matching scheme = b
# total cross sections [nb] at LO, NLOdiff, NNLOdiff, N3LOdiff =     0.015055    0.019611    0.008998    0.001413
#----------------------------------------------------------------------
# the lines that follow give the jet-veto efficiencies as a function of pt
#         pt            matched eff      resummed eff     fixed-order eff
   2.00000000E+001   4.49690659E-001   5.48009469E-001   3.20844325E-001
   2.50000000E+001   5.31101893E-001   6.27030467E-001   4.29272444E-001
   3.00000000E+001   5.96730336E-001   6.82204905E-001   5.13978769E-001
   3.50000000E+001   6.50004476E-001   7.20425381E-001   5.81442017E-001
   4.00000000E+001   6.93998038E-001   7.46443174E-001   6.36470582E-001
   4.50000000E+001   7.30683555E-001   7.63590828E-001   6.82049408E-001
   5.00000000E+001   7.61577849E-001   7.74250988E-001   7.20304754E-001
   5.50000000E+001   7.87782818E-001   7.80178943E-001   7.52707770E-001
   6.00000000E+001   8.10072886E-001   7.82687894E-001   7.80293093E-001
   6.50000000E+001   8.29325954E-001   7.82791745E-001   8.04094553E-001
   7.00000000E+001   8.46114479E-001   7.81284538E-001   8.24799203E-001
   7.50000000E+001   8.60628092E-001   7.78786226E-001   8.42689242E-001
   8.00000000E+001   8.73450745E-001   7.75772036E-001   8.58403155E-001
   8.50000000E+001   8.84834732E-001   7.72590456E-001   8.72248607E-001
   9.00000000E+001   8.94995115E-001   7.69480884E-001   8.84490214E-001
   9.50000000E+001   9.03997643E-001   7.66591237E-001   8.95243884E-001
   1.00000000E+002   9.12114004E-001   7.64000077E-001   9.04822178E-001
   1.05000000E+002   9.19373182E-001   7.61735597E-001   9.13297358E-001
   1.10000000E+002   9.25979088E-001   7.59792953E-001   9.20909416E-001
   1.15000000E+002   9.31933180E-001   7.58148077E-001   9.27694941E-001
   1.20000000E+002   9.37363730E-001   7.56767663E-001   9.33811268E-001
   1.25000000E+002   9.42308940E-001   7.55615654E-001   9.39322340E-001
   1.30000000E+002   9.46770270E-001   7.54657316E-001   9.44251399E-001
   1.35000000E+002   9.50867802E-001   7.53861126E-001   9.48735691E-001
   1.40000000E+002   9.54609164E-001   7.53199540E-001   9.52797807E-001
   1.45000000E+002   9.57983904E-001   7.52649126E-001   9.56439457E-001
   1.50000000E+002   9.61108210E-001   7.52190286E-001   9.59786275E-001
   1.55000000E+002   9.63939957E-001   7.51806805E-001   9.62804347E-001
   1.60000000E+002   9.66558833E-001   7.51485360E-001   9.65579670E-001
   1.65000000E+002   9.68929237E-001   7.51215054E-001   9.68082008E-001
   1.70000000E+002   9.71133508E-001   7.50986984E-001   9.70397828E-001
   1.75000000E+002   9.73173557E-001   7.50793887E-001   9.72532555E-001
   1.80000000E+002   9.75020892E-001   7.50629830E-001   9.74460602E-001
   1.85000000E+002   9.76731101E-001   7.50489961E-001   9.76239797E-001
   1.90000000E+002   9.78312686E-001   7.50370303E-001   9.77880551E-001
   1.95000000E+002   9.79756480E-001   7.50267589E-001   9.79375286E-001
   2.00000000E+002   9.81091851E-001   7.50179129E-001   9.80754640E-001
   2.05000000E+002   9.82341884E-001   7.50102698E-001   9.82042753E-001
   2.10000000E+002   9.83479384E-001   7.50036453E-001   9.83213352E-001
   2.15000000E+002   9.84549311E-001   7.49978862E-001   9.84312105E-001
   2.20000000E+002   9.85541424E-001   7.49928647E-001   9.85329407E-001
   2.25000000E+002   9.86431446E-001   7.49884738E-001   9.86241514E-001
   2.30000000E+002   9.87312382E-001   7.49846237E-001   9.87141826E-001
   2.35000000E+002   9.88089105E-001   7.49812388E-001   9.87935633E-001
   2.40000000E+002   9.88826203E-001   7.49782553E-001   9.88687810E-001
   2.45000000E+002   9.89512044E-001   7.49756189E-001   9.89386996E-001
