# ./jetvheto -in n3lo-fixed-order/H125-LHC13-R04-mb-475-mt-1725-xmur100-xmuf200-log.fxd -xQ 0.5 -out benchmarks-n3lo-smallR/H125-LHC13-R04-mb-475-mt-1725-xmur100-xmuf200-xQ050-NNLO+NNLLa.res -scheme a -order 2 -ptmax 500.01 -fixed_order 2 -loop-mass t+b
# process = H    
# collider = pp   
# rts =  13000.000
# M   =    125.000
# muR =    125.000
# muF =    250.000
# Q   =     62.500
# p   =      5.000
# include_c1_squared =   F
# loop_mass  = t+b 
# alphas(MZ) =    0.11800
# alphas(M) =    0.11264
# alphas(muR) =    0.11264
# Rjet =      0.400
# order = NNLL
# pdf name and set = PDF4LHC15_nnlo_mc.LHgrid,    0
# matching scheme = a
# total cross sections [nb] at LO, NLOdiff, NNLOdiff, N3LOdiff =     0.012791    0.017144    0.009991    0.003297
#----------------------------------------------------------------------
# the lines that follow give the jet-veto efficiencies as a function of pt
#         pt            matched eff      resummed eff     fixed-order eff
   2.00000000E+001   4.84508371E-001   5.13172963E-001   4.96990142E-001
   2.50000000E+001   5.73618862E-001   5.92192249E-001   5.79781046E-001
   3.00000000E+001   6.42806036E-001   6.47679372E-001   6.43205554E-001
   3.50000000E+001   6.97264929E-001   6.86138896E-001   6.93573535E-001
   4.00000000E+001   7.40433188E-001   7.12266330E-001   7.34390203E-001
   4.50000000E+001   7.75074749E-001   7.29522987E-001   7.68110951E-001
   5.00000000E+001   8.03162235E-001   7.40533642E-001   7.96256890E-001
   5.50000000E+001   8.26309169E-001   7.47303878E-001   8.20052497E-001
   6.00000000E+001   8.45596692E-001   7.51326446E-001   8.40246247E-001
   6.50000000E+001   8.62057401E-001   7.53653081E-001   8.57652920E-001
   7.00000000E+001   8.76308325E-001   7.54977022E-001   8.72768673E-001
   7.50000000E+001   8.88684864E-001   7.55726666E-001   8.85878372E-001
   8.00000000E+001   8.99622088E-001   7.56153410E-001   8.97410399E-001
   8.50000000E+001   9.09215662E-001   7.56399677E-001   9.07474445E-001
   9.00000000E+001   9.17754879E-001   7.56544621E-001   9.16380866E-001
   9.50000000E+001   9.25326859E-001   7.56631950E-001   9.24237657E-001
   1.00000000E+002   9.32032075E-001   7.56685944E-001   9.31163638E-001
   1.05000000E+002   9.38111514E-001   7.56720256E-001   9.37414533E-001
   1.10000000E+002   9.43540226E-001   7.56742663E-001   9.42977060E-001
   1.15000000E+002   9.48419920E-001   7.56757690E-001   9.47961719E-001
   1.20000000E+002   9.52804620E-001   7.56768027E-001   9.52429312E-001
   1.25000000E+002   9.56740748E-001   7.56775310E-001   9.56431308E-001
   1.30000000E+002   9.60297093E-001   7.56780558E-001   9.60040343E-001
   1.35000000E+002   9.63549227E-001   7.56784417E-001   9.63334907E-001
   1.40000000E+002   9.66480032E-001   7.56787309E-001   9.66300093E-001
   1.45000000E+002   9.69136561E-001   7.56789513E-001   9.68984662E-001
   1.50000000E+002   9.71561732E-001   7.56791218E-001   9.71432833E-001
   1.55000000E+002   9.73760679E-001   7.56792557E-001   9.73650757E-001
   1.60000000E+002   9.75791328E-001   7.56793621E-001   9.75697154E-001
   1.65000000E+002   9.77640956E-001   7.56794475E-001   9.77559914E-001
   1.70000000E+002   9.79324718E-001   7.56795169E-001   9.79254684E-001
   1.75000000E+002   9.80838832E-001   7.56795737E-001   9.80778070E-001
   1.80000000E+002   9.82255153E-001   7.56796206E-001   9.82202234E-001
   1.85000000E+002   9.83557775E-001   7.56796596E-001   9.83511521E-001
   1.90000000E+002   9.84733927E-001   7.56796923E-001   9.84693360E-001
   1.95000000E+002   9.85823688E-001   7.56797199E-001   9.85787993E-001
   2.00000000E+002   9.86816696E-001   7.56797433E-001   9.86785191E-001
   2.05000000E+002   9.87740120E-001   7.56797632E-001   9.87712229E-001
   2.10000000E+002   9.88594513E-001   7.56797803E-001   9.88569752E-001
   2.15000000E+002   9.89382436E-001   7.56797950E-001   9.89360394E-001
   2.20000000E+002   9.90104986E-001   7.56798077E-001   9.90085314E-001
   2.25000000E+002   9.90768326E-001   7.56798187E-001   9.90750725E-001
   2.30000000E+002   9.91392888E-001   7.56798283E-001   9.91377103E-001
   2.35000000E+002   9.91974943E-001   7.56798366E-001   9.91960753E-001
   2.40000000E+002   9.92487988E-001   7.56798440E-001   9.92475205E-001
   2.45000000E+002   9.92982547E-001   7.56798504E-001   9.92971008E-001
