# ./jetvheto -in n3lo-fixed-order/H125-LHC13-R04-mb-0-mt-1725-xmur200-xmuf100-log.fxd -xQ 0.0625 -out benchmarks-n3lo-smallR/H125-LHC13-R04-mb-0-mt-1725-xmur200-xmuf100-xQ0625-NNLO+NNLLb.R0-2.0.res -scheme b -order 2 -ptmax 500.01 -small-r -fixed_order 2 -loop-mass t -R0 2.0
# process = H    
# collider = pp   
# rts =  13000.000
# M   =    125.000
# muR =    250.000
# muF =    125.000
# Q   =      7.812
# p   =      5.000
# include_c1_squared =   F
# loop_mass  = t   
# alphas(MZ) =    0.11800
# alphas(M) =    0.11264
# alphas(muR) =    0.10244
# Rjet =      0.400
# order = NNLL
# pdf name and set = PDF4LHC15_nnlo_mc.LHgrid,    0
# matching scheme = b
# total cross sections [nb] at LO, NLOdiff, NNLOdiff, N3LOdiff =     0.011501    0.015066    0.010526    0.005600
#----------------------------------------------------------------------
# the lines that follow give the jet-veto efficiencies as a function of pt
#         pt            matched eff      resummed eff     fixed-order eff
   2.00000000E+001   3.67748850E-001   3.68590621E-001   3.67201827E-001
   2.50000000E+001   4.73293828E-001   3.69200676E-001   4.73161072E-001
   3.00000000E+001   5.53761561E-001   3.69379308E-001   5.53722917E-001
   3.50000000E+001   6.17266092E-001   3.69443889E-001   6.17253656E-001
   4.00000000E+001   6.68580671E-001   3.69470988E-001   6.68576569E-001
   4.50000000E+001   7.10592718E-001   3.69483691E-001   7.10591480E-001
   5.00000000E+001   7.45672841E-001   3.69490178E-001   7.45672623E-001
   5.50000000E+001   7.75224291E-001   3.69493724E-001   7.75224424E-001
   6.00000000E+001   8.00466757E-001   3.69495773E-001   8.00466992E-001
   6.50000000E+001   8.22168346E-001   3.69497013E-001   8.22168588E-001
   7.00000000E+001   8.40838752E-001   3.69497793E-001   8.40838970E-001
   7.50000000E+001   8.57218169E-001   3.69498300E-001   8.57218355E-001
   8.00000000E+001   8.71570036E-001   3.69498640E-001   8.71570191E-001
   8.50000000E+001   8.84125192E-001   3.69498873E-001   8.84125319E-001
   9.00000000E+001   8.95229573E-001   3.69499037E-001   8.95229677E-001
   9.50000000E+001   9.05021257E-001   3.69499154E-001   9.05021342E-001
   1.00000000E+002   9.13771288E-001   3.69499240E-001   9.13771358E-001
   1.05000000E+002   9.21577444E-001   3.69499303E-001   9.21577501E-001
   1.10000000E+002   9.28482516E-001   3.69499351E-001   9.28482563E-001
   1.15000000E+002   9.34751057E-001   3.69499387E-001   9.34751096E-001
   1.20000000E+002   9.40353815E-001   3.69499415E-001   9.40353848E-001
   1.25000000E+002   9.45420142E-001   3.69499436E-001   9.45420170E-001
   1.30000000E+002   9.50012731E-001   3.69499454E-001   9.50012754E-001
   1.35000000E+002   9.54139288E-001   3.69499467E-001   9.54139308E-001
   1.40000000E+002   9.57892384E-001   3.69499478E-001   9.57892400E-001
   1.45000000E+002   9.61329304E-001   3.69499487E-001   9.61329318E-001
   1.50000000E+002   9.64412352E-001   3.69499494E-001   9.64412364E-001
   1.55000000E+002   9.67265396E-001   3.69499500E-001   9.67265406E-001
   1.60000000E+002   9.69867867E-001   3.69499504E-001   9.69867876E-001
   1.65000000E+002   9.72229720E-001   3.69499508E-001   9.72229728E-001
   1.70000000E+002   9.74397637E-001   3.69499512E-001   9.74397644E-001
   1.75000000E+002   9.76352435E-001   3.69499514E-001   9.76352441E-001
   1.80000000E+002   9.78164665E-001   3.69499517E-001   9.78164670E-001
   1.85000000E+002   9.79813088E-001   3.69499519E-001   9.79813093E-001
   1.90000000E+002   9.81339751E-001   3.69499520E-001   9.81339755E-001
   1.95000000E+002   9.82748350E-001   3.69499522E-001   9.82748354E-001
   2.00000000E+002   9.84029032E-001   3.69499523E-001   9.84029035E-001
   2.05000000E+002   9.85224078E-001   3.69499524E-001   9.85224081E-001
   2.10000000E+002   9.86306197E-001   3.69499525E-001   9.86306199E-001
   2.15000000E+002   9.87297709E-001   3.69499526E-001   9.87297711E-001
   2.20000000E+002   9.88224613E-001   3.69499527E-001   9.88224615E-001
   2.25000000E+002   9.89074356E-001   3.69499527E-001   9.89074358E-001
   2.30000000E+002   9.89861885E-001   3.69499528E-001   9.89861887E-001
   2.35000000E+002   9.90598329E-001   3.69499528E-001   9.90598331E-001
   2.40000000E+002   9.91263046E-001   3.69499529E-001   9.91263048E-001
   2.45000000E+002   9.91886611E-001   3.69499529E-001   9.91886612E-001
