# ./jetvheto -in n3lo-fixed-order/H125-LHC13-R04-heft-xmur100-xmuf100-log.fxd -xQ 1.00 -out benchmarks-n3lo-smallR/H125-LHC13-R04-heft-xmur100-xmuf100-xQ100-N3LO+NNLLb.res -scheme b -order 2 -ptmax 500.01 -fixed_order 3
# process = H    
# collider = pp   
# rts =  13000.000
# M   =    125.000
# muR =    125.000
# muF =    125.000
# Q   =    125.000
# p   =      5.000
# include_c1_squared =   F
# loop_mass  = none
# alphas(MZ) =    0.11800
# alphas(M) =    0.11264
# alphas(muR) =    0.11264
# Rjet =      0.400
# order = NNLL
# pdf name and set = PDF4LHC15_nnlo_mc.LHgrid,    0
# matching scheme = b
# total cross sections [nb] at LO, NLOdiff, NNLOdiff, N3LOdiff =     0.012945    0.016716    0.010146    0.003834
#----------------------------------------------------------------------
# the lines that follow give the jet-veto efficiencies as a function of pt
#         pt            matched eff      resummed eff     fixed-order eff
   2.00000000E+001   4.44208522E-001   5.76765964E-001   4.08842854E-001
   2.50000000E+001   5.30775105E-001   6.67091964E-001   5.02042917E-001
   3.00000000E+001   6.04725656E-001   7.30855913E-001   5.80189507E-001
   3.50000000E+001   6.62615155E-001   7.75533258E-001   6.40535859E-001
   4.00000000E+001   7.09686712E-001   8.06393501E-001   6.89380469E-001
   4.50000000E+001   7.47860795E-001   8.27120819E-001   7.29072921E-001
   5.00000000E+001   7.80190490E-001   8.40344113E-001   7.62718280E-001
   5.50000000E+001   8.07760636E-001   8.47977876E-001   7.91464926E-001
   6.00000000E+001   8.30825248E-001   8.51429224E-001   8.15679320E-001
   6.50000000E+001   8.51445566E-001   8.51753686E-001   8.37307615E-001
   7.00000000E+001   8.68620864E-001   8.49765071E-001   8.55527758E-001
   7.50000000E+001   8.82637884E-001   8.46099418E-001   8.70653294E-001
   8.00000000E+001   8.94858019E-001   8.41263815E-001   8.83928611E-001
   8.50000000E+001   9.05885500E-001   8.35666234E-001   8.95926690E-001
   9.00000000E+001   9.15180095E-001   8.29636911E-001   9.06183068E-001
   9.50000000E+001   9.23686227E-001   8.23439459E-001   9.15566581E-001
   1.00000000E+002   9.30645638E-001   8.17282837E-001   9.23392937E-001
   1.05000000E+002   9.36871656E-001   8.11327262E-001   9.30416744E-001
   1.10000000E+002   9.42489264E-001   8.05689281E-001   9.36761850E-001
   1.15000000E+002   9.47505030E-001   8.00448028E-001   9.42442779E-001
   1.20000000E+002   9.51844829E-001   7.95649447E-001   9.47391165E-001
   1.25000000E+002   9.55569180E-001   7.91312387E-001   9.51667329E-001
   1.30000000E+002   9.59371335E-001   7.87434477E-001   9.55942935E-001
   1.35000000E+002   9.62720360E-001   7.83997780E-001   9.59715852E-001
   1.40000000E+002   9.65488713E-001   7.80973889E-001   9.62864552E-001
   1.45000000E+002   9.68188687E-001   7.78328222E-001   9.65893331E-001
   1.50000000E+002   9.70459053E-001   7.76023431E-001   9.68454154E-001
   1.55000000E+002   9.72962201E-001   7.74021860E-001   9.71201993E-001
   1.60000000E+002   9.74615684E-001   7.72287248E-001   9.73079465E-001
   1.65000000E+002   9.76442866E-001   7.70785851E-001   9.75095505E-001
   1.70000000E+002   9.78055550E-001   7.69486984E-001   9.76872986E-001
   1.75000000E+002   9.79647603E-001   7.68363233E-001   9.78606495E-001
   1.80000000E+002   9.81120168E-001   7.67390431E-001   9.80201996E-001
   1.85000000E+002   9.82449242E-001   7.66547487E-001   9.81638090E-001
   1.90000000E+002   9.83361741E-001   7.65816131E-001   9.82646032E-001
   1.95000000E+002   9.84587947E-001   7.65180623E-001   9.83952600E-001
   2.00000000E+002   9.85636703E-001   7.64627456E-001   9.85072030E-001
   2.05000000E+002   9.86535643E-001   7.64145066E-001   9.86033119E-001
   2.10000000E+002   9.87354154E-001   7.63723574E-001   9.86906031E-001
   2.15000000E+002   9.88269638E-001   7.63354545E-001   9.87868512E-001
   2.20000000E+002   9.88935251E-001   7.63030779E-001   9.88576191E-001
   2.25000000E+002   9.89645613E-001   7.62746128E-001   9.89323232E-001
   2.30000000E+002   9.90314648E-001   7.62495340E-001   9.90024614E-001
   2.35000000E+002   9.90944792E-001   7.62273922E-001   9.90683369E-001
   2.40000000E+002   9.91381150E-001   7.62078027E-001   9.91145412E-001
   2.45000000E+002   9.91961464E-001   7.61904355E-001   9.91748108E-001
