# ./jetvheto -in n3lo-fixed-order/H125-LHC13-R04-mb-475-mt-1725-xmur025-xmuf050-log.fxd -xQ 0.5 -out benchmarks-n3lo-smallR/H125-LHC13-R04-mb-475-mt-1725-xmur025-xmuf050-xQ050-NNLO+NNLLb.R0-0.5.res -scheme b -order 2 -ptmax 500.01 -fixed_order 2 -small-r -loop-mass t+b -R0 0.5
# process = H    
# collider = pp   
# rts =  13000.000
# M   =    125.000
# muR =     31.250
# muF =     62.500
# Q   =     62.500
# p   =      5.000
# include_c1_squared =   F
# loop_mass  = t+b 
# alphas(MZ) =    0.11800
# alphas(M) =    0.11264
# alphas(muR) =    0.14091
# Rjet =      0.400
# order = NNLL
# pdf name and set = PDF4LHC15_nnlo_mc.LHgrid,    0
# matching scheme = b
# total cross sections [nb] at LO, NLOdiff, NNLOdiff, N3LOdiff =     0.017683    0.024805    0.005009   -0.002663
#----------------------------------------------------------------------
# the lines that follow give the jet-veto efficiencies as a function of pt
#         pt            matched eff      resummed eff     fixed-order eff
   2.00000000E+001   4.33268846E-001   4.63672865E-001   3.45013482E-001
   2.50000000E+001   5.16623070E-001   5.29549171E-001   4.46678028E-001
   3.00000000E+001   5.83798187E-001   5.74993181E-001   5.28145480E-001
   3.50000000E+001   6.38491184E-001   6.05938069E-001   5.94218939E-001
   4.00000000E+001   6.83502843E-001   6.26554151E-001   6.48501749E-001
   4.50000000E+001   7.21365266E-001   6.39845262E-001   6.93918270E-001
   5.00000000E+001   7.53523770E-001   6.48061165E-001   7.32217372E-001
   5.50000000E+001   7.81045276E-001   6.52901697E-001   7.64650938E-001
   6.00000000E+001   8.04928174E-001   6.55613923E-001   7.92387018E-001
   6.50000000E+001   8.25828592E-001   6.57057758E-001   8.16263144E-001
   7.00000000E+001   8.44370108E-001   6.57786707E-001   8.37069884E-001
   7.50000000E+001   8.60571978E-001   6.58132410E-001   8.54982301E-001
   8.00000000E+001   8.75033240E-001   6.58281566E-001   8.70729506E-001
   8.50000000E+001   8.87933165E-001   6.58334110E-001   8.84596193E-001
   9.00000000E+001   8.99355941E-001   6.58341716E-001   8.96749054E-001
   9.50000000E+001   9.09428020E-001   6.58330154E-001   9.07374553E-001
   1.00000000E+002   9.18496966E-001   6.58311839E-001   9.16865875E-001
   1.05000000E+002   9.26532516E-001   6.58292490E-001   9.25226146E-001
   1.10000000E+002   9.33714815E-001   6.58274530E-001   9.32660346E-001
   1.15000000E+002   9.40170324E-001   6.58258806E-001   9.39312551E-001
   1.20000000E+002   9.45950673E-001   6.58245447E-001   9.45247859E-001
   1.25000000E+002   9.51199276E-001   6.58234272E-001   9.50619386E-001
   1.30000000E+002   9.55835816E-001   6.58225000E-001   9.55354243E-001
   1.35000000E+002   9.60044526E-001   6.58217331E-001   9.59642145E-001
   1.40000000E+002   9.63858872E-001   6.58210993E-001   9.63520673E-001
   1.45000000E+002   9.67273664E-001   6.58205747E-001   9.66987843E-001
   1.50000000E+002   9.70404657E-001   6.58201396E-001   9.70161843E-001
   1.55000000E+002   9.73222012E-001   6.58197776E-001   9.73014721E-001
   1.60000000E+002   9.75769580E-001   6.58194754E-001   9.75591796E-001
   1.65000000E+002   9.78055728E-001   6.58192222E-001   9.77902582E-001
   1.70000000E+002   9.80144076E-001   6.58190092E-001   9.80011610E-001
   1.75000000E+002   9.82075300E-001   6.58188293E-001   9.81960264E-001
   1.80000000E+002   9.83779562E-001   6.58186768E-001   9.83679291E-001
   1.85000000E+002   9.85360075E-001   6.58185471E-001   9.85272360E-001
   1.90000000E+002   9.86800071E-001   6.58184364E-001   9.86723082E-001
   1.95000000E+002   9.88097477E-001   6.58183414E-001   9.88029685E-001
   2.00000000E+002   9.89275190E-001   6.58182597E-001   9.89215313E-001
   2.05000000E+002   9.90363239E-001   6.58181893E-001   9.90310198E-001
   2.10000000E+002   9.91319744E-001   6.58181283E-001   9.91272628E-001
   2.15000000E+002   9.92234125E-001   6.58180752E-001   9.92192159E-001
   2.20000000E+002   9.93069317E-001   6.58180291E-001   9.93031843E-001
   2.25000000E+002   9.93784213E-001   6.58179887E-001   9.93750669E-001
   2.30000000E+002   9.94507108E-001   6.58179534E-001   9.94477010E-001
   2.35000000E+002   9.95117283E-001   6.58179223E-001   9.95090217E-001
   2.40000000E+002   9.95688998E-001   6.58178949E-001   9.95664606E-001
   2.45000000E+002   9.96204387E-001   6.58178707E-001   9.96182360E-001
