# ./jetvheto -in n3lo-fixed-order/H125-LHC13-R04-mb-475-mt-1725-xmur100-xmuf100-log.fxd -xQ 0.75 -out benchmarks-n3lo-smallR/H125-LHC13-R04-mb-475-mt-1725-xmur100-xmuf100-xQ075-N3LO+NNLLa.R0-2.0.res -scheme a -order 2 -ptmax 500.01 -fixed_order 3 -small-r -loop-mass t+b -R0 2.0
# process = H    
# collider = pp   
# rts =  13000.000
# M   =    125.000
# muR =    125.000
# muF =    125.000
# Q   =     93.750
# p   =      5.000
# include_c1_squared =   F
# loop_mass  = t+b 
# alphas(MZ) =    0.11800
# alphas(M) =    0.11264
# alphas(muR) =    0.11264
# Rjet =      0.400
# order = NNLL
# pdf name and set = PDF4LHC15_nnlo_mc.LHgrid,    0
# matching scheme = a
# total cross sections [nb] at LO, NLOdiff, NNLOdiff, N3LOdiff =     0.012292    0.016994    0.010146    0.003834
#----------------------------------------------------------------------
# the lines that follow give the jet-veto efficiencies as a function of pt
#         pt            matched eff      resummed eff     fixed-order eff
   2.00000000E+001   4.73633888E-001   5.48534237E-001   4.51319368E-001
   2.50000000E+001   5.59297332E-001   6.27077913E-001   5.36825698E-001
   3.00000000E+001   6.31200528E-001   6.82330083E-001   6.08858675E-001
   3.50000000E+001   6.87291256E-001   7.20898051E-001   6.64947540E-001
   4.00000000E+001   7.32259804E-001   7.47396467E-001   7.10355778E-001
   4.50000000E+001   7.68464877E-001   7.65081004E-001   7.47456588E-001
   5.00000000E+001   7.98738279E-001   7.76277082E-001   7.78978104E-001
   5.50000000E+001   8.24199448E-001   7.82703834E-001   8.05930820E-001
   6.00000000E+001   8.45325774E-001   7.85664502E-001   8.28717070E-001
   6.50000000E+001   8.63974020E-001   7.86171177E-001   8.49064316E-001
   7.00000000E+001   8.79453115E-001   7.85018063E-001   8.66268025E-001
   7.50000000E+001   8.92019221E-001   7.82825360E-001   8.80530885E-001
   8.00000000E+001   9.03021109E-001   7.80069711E-001   8.93116387E-001
   8.50000000E+001   9.12933392E-001   7.77102790E-001   9.04462211E-001
   9.00000000E+001   9.21376184E-001   7.74169010E-001   9.14193494E-001
   9.50000000E+001   9.29146156E-001   7.71422584E-001   9.23082480E-001
   1.00000000E+002   9.35601069E-001   7.68947440E-001   9.30511231E-001
   1.05000000E+002   9.41465292E-001   7.66776597E-001   9.37200842E-001
   1.10000000E+002   9.46770043E-001   7.64909398E-001   9.43198469E-001
   1.15000000E+002   9.51580294E-001   7.63325355E-001   9.48587632E-001
   1.20000000E+002   9.55747727E-001   7.61994017E-001   9.53237889E-001
   1.25000000E+002   9.59423659E-001   7.60881749E-001   9.57315271E-001
   1.30000000E+002   9.63145755E-001   7.59955671E-001   9.61366818E-001
   1.35000000E+002   9.66441658E-001   7.59185735E-001   9.64936627E-001
   1.40000000E+002   9.69205613E-001   7.58545600E-001   9.67929190E-001
   1.45000000E+002   9.71886528E-001   7.58012789E-001   9.70799436E-001
   1.50000000E+002   9.74160548E-001   7.57568459E-001   9.73231918E-001
   1.55000000E+002   9.76642460E-001   7.57196992E-001   9.75845039E-001
   1.60000000E+002   9.78301246E-001   7.56885541E-001   9.77615642E-001
   1.65000000E+002   9.80116010E-001   7.56623583E-001   9.79523686E-001
   1.70000000E+002   9.81704194E-001   7.56402520E-001   9.81190793E-001
   1.75000000E+002   9.83260187E-001   7.56215329E-001   9.82813463E-001
   1.80000000E+002   9.84682705E-001   7.56056270E-001   9.84292712E-001
   1.85000000E+002   9.85971128E-001   7.55920648E-001   9.85629591E-001
   1.90000000E+002   9.86865730E-001   7.55804614E-001   9.86566035E-001
   1.95000000E+002   9.88033756E-001   7.55705004E-001   9.87769612E-001
   2.00000000E+002   9.89024687E-001   7.55619210E-001   9.88791277E-001
   2.05000000E+002   9.89874179E-001   7.55545080E-001   9.89667405E-001
   2.10000000E+002   9.90642528E-001   7.55480826E-001   9.90458863E-001
   2.15000000E+002   9.91486963E-001   7.55424964E-001   9.91323305E-001
   2.20000000E+002   9.92101684E-001   7.55376254E-001   9.91955592E-001
   2.25000000E+002   9.92750354E-001   7.55333660E-001   9.92619584E-001
   2.30000000E+002   9.93353260E-001   7.55296311E-001   9.93235932E-001
   2.35000000E+002   9.93910304E-001   7.55263475E-001   9.93804803E-001
   2.40000000E+002   9.94287760E-001   7.55234531E-001   9.94192740E-001
   2.45000000E+002   9.94799423E-001   7.55208955E-001   9.94713610E-001
