# ./jetvheto -in n3lo-fixed-order/H125-LHC13-R04-mb-475-mt-1725-xmur050-xmuf050-log.fxd -xQ 0.25 -out benchmarks-n3lo-smallR/H125-LHC13-R04-mb-475-mt-1725-xmur050-xmuf050-xQ025-NNLO+NNLLb.R0-1.0.res -scheme b -order 2 -ptmax 500.01 -fixed_order 2 -small-r -loop-mass t+b -R0 1.0
# process = H    
# collider = pp   
# rts =  13000.000
# M   =    125.000
# muR =     62.500
# muF =     62.500
# Q   =     31.250
# p   =      5.000
# include_c1_squared =   F
# loop_mass  = t+b 
# alphas(MZ) =    0.11800
# alphas(M) =    0.11264
# alphas(muR) =    0.12516
# Rjet =      0.400
# order = NNLL
# pdf name and set = PDF4LHC15_nnlo_mc.LHgrid,    0
# matching scheme = b
# total cross sections [nb] at LO, NLOdiff, NNLOdiff, N3LOdiff =     0.014147    0.020254    0.008998    0.001413
#----------------------------------------------------------------------
# the lines that follow give the jet-veto efficiencies as a function of pt
#         pt            matched eff      resummed eff     fixed-order eff
   2.00000000E+001   3.61623391E-001   4.71775487E-001   3.08135668E-001
   2.50000000E+001   4.45088116E-001   5.38037027E-001   4.16958718E-001
   3.00000000E+001   5.16856556E-001   5.77267682E-001   5.02459671E-001
   3.50000000E+001   5.78562961E-001   5.98718859E-001   5.71196452E-001
   4.00000000E+001   6.31224980E-001   6.10020352E-001   6.27360842E-001
   4.50000000E+001   6.76404454E-001   6.16003055E-001   6.74295094E-001
   5.00000000E+001   7.15019579E-001   6.19265043E-001   7.13816378E-001
   5.50000000E+001   7.48024366E-001   6.21114295E-001   7.47307378E-001
   6.00000000E+001   7.76457226E-001   6.22205567E-001   7.76012324E-001
   6.50000000E+001   8.01037910E-001   6.22874302E-001   8.00751743E-001
   7.00000000E+001   8.22531994E-001   6.23298356E-001   8.22342000E-001
   7.50000000E+001   8.41154188E-001   6.23575590E-001   8.41024239E-001
   8.00000000E+001   8.57572904E-001   6.23761823E-001   8.57481768E-001
   8.50000000E+001   8.72093595E-001   6.23889984E-001   8.72028209E-001
   9.00000000E+001   8.84836326E-001   6.23980099E-001   8.84788465E-001
   9.50000000E+001   8.96065789E-001   6.24044698E-001   8.96030076E-001
   1.00000000E+002   9.06115170E-001   6.24091814E-001   9.06088095E-001
   1.05000000E+002   9.15043724E-001   6.24126721E-001   9.15022873E-001
   1.10000000E+002   9.22983844E-001   6.24152954E-001   9.22967578E-001
   1.15000000E+002   9.30136374E-001   6.24172923E-001   9.30123525E-001
   1.20000000E+002   9.36535457E-001   6.24188307E-001   9.36525194E-001
   1.25000000E+002   9.42350258E-001   6.24200286E-001   9.42341979E-001
   1.30000000E+002   9.47519422E-001   6.24209708E-001   9.47512677E-001
   1.35000000E+002   9.52198247E-001   6.24217188E-001   9.52192707E-001
   1.40000000E+002   9.56458107E-001   6.24223177E-001   9.56453519E-001
   1.45000000E+002   9.60295082E-001   6.24228010E-001   9.60291255E-001
   1.50000000E+002   9.63809177E-001   6.24231940E-001   9.63805964E-001
   1.55000000E+002   9.66989531E-001   6.24235156E-001   9.66986816E-001
   1.60000000E+002   9.69874684E-001   6.24237807E-001   9.69872376E-001
   1.65000000E+002   9.72481891E-001   6.24240004E-001   9.72479918E-001
   1.70000000E+002   9.74858618E-001   6.24241836E-001   9.74856924E-001
   1.75000000E+002   9.77059652E-001   6.24243371E-001   9.77058190E-001
   1.80000000E+002   9.79027377E-001   6.24244664E-001   9.79026110E-001
   1.85000000E+002   9.80856121E-001   6.24245759E-001   9.80855018E-001
   1.90000000E+002   9.82522046E-001   6.24246690E-001   9.82521082E-001
   1.95000000E+002   9.84038611E-001   6.24247485E-001   9.84037765E-001
   2.00000000E+002   9.85421461E-001   6.24248166E-001   9.85420716E-001
   2.05000000E+002   9.86697878E-001   6.24248752E-001   9.86697220E-001
   2.10000000E+002   9.87837405E-001   6.24249259E-001   9.87836822E-001
   2.15000000E+002   9.88920064E-001   6.24249698E-001   9.88919546E-001
   2.20000000E+002   9.89913537E-001   6.24250080E-001   9.89913075E-001
   2.25000000E+002   9.90787069E-001   6.24250413E-001   9.90786656E-001
   2.30000000E+002   9.91640728E-001   6.24250705E-001   9.91640359E-001
   2.35000000E+002   9.92385079E-001   6.24250961E-001   9.92384747E-001
   2.40000000E+002   9.93082868E-001   6.24251186E-001   9.93082569E-001
   2.45000000E+002   9.93712141E-001   6.24251385E-001   9.93711871E-001
