# ./jetvheto -in n3lo-fixed-order/H125-LHC13-R04-mb-0-mt-1725-xmur050-xmuf100-log.fxd -xQ 0.25 -out benchmarks-n3lo-smallR/H125-LHC13-R04-mb-0-mt-1725-xmur050-xmuf100-xQ025-N3LO+NNLLb.R0-0.5.res -scheme b -order 2 -ptmax 500.01 -small-r -fixed_order 3 -loop-mass t -R0 0.5
# process = H    
# collider = pp   
# rts =  13000.000
# M   =    125.000
# muR =     62.500
# muF =    125.000
# Q   =     31.250
# p   =      5.000
# include_c1_squared =   F
# loop_mass  = t   
# alphas(MZ) =    0.11800
# alphas(M) =    0.11264
# alphas(muR) =    0.12516
# Rjet =      0.400
# order = NNLL
# pdf name and set = PDF4LHC15_nnlo_mc.LHgrid,    0
# matching scheme = b
# total cross sections [nb] at LO, NLOdiff, NNLOdiff, N3LOdiff =     0.016868    0.020591    0.008553    0.000949
#----------------------------------------------------------------------
# the lines that follow give the jet-veto efficiencies as a function of pt
#         pt            matched eff      resummed eff     fixed-order eff
   2.00000000E+001   4.50363548E-001   5.03061866E-001   4.44147613E-001
   2.50000000E+001   5.34716793E-001   5.71996597E-001   5.31088854E-001
   3.00000000E+001   6.08721370E-001   6.12555173E-001   6.07119654E-001
   3.50000000E+001   6.65986264E-001   6.34629864E-001   6.65155664E-001
   4.00000000E+001   7.12414680E-001   6.46226094E-001   7.11953965E-001
   4.50000000E+001   7.49941985E-001   6.52354659E-001   7.49666337E-001
   5.00000000E+001   7.82012920E-001   6.55692993E-001   7.81846163E-001
   5.50000000E+001   8.09611828E-001   6.57584486E-001   8.09509340E-001
   6.00000000E+001   8.32665888E-001   6.58700326E-001   8.32598772E-001
   6.50000000E+001   8.53622272E-001   6.59383982E-001   8.53579085E-001
   7.00000000E+001   8.71058952E-001   6.59817445E-001   8.71029528E-001
   7.50000000E+001   8.85181800E-001   6.60100807E-001   8.85160222E-001
   8.00000000E+001   8.97602463E-001   6.60291148E-001   8.97586419E-001
   8.50000000E+001   9.09027302E-001   6.60422130E-001   9.09015500E-001
   9.00000000E+001   9.18540215E-001   6.60514228E-001   9.18531151E-001
   9.50000000E+001   9.27442612E-001   6.60580245E-001   9.27435725E-001
   1.00000000E+002   9.34622092E-001   6.60628396E-001   9.34616627E-001
   1.05000000E+002   9.41082500E-001   6.60664070E-001   9.41078136E-001
   1.10000000E+002   9.46946440E-001   6.60690878E-001   9.46942949E-001
   1.15000000E+002   9.52188528E-001   6.60711286E-001   9.52185702E-001
   1.20000000E+002   9.56671885E-001   6.60727007E-001   9.56669565E-001
   1.25000000E+002   9.60449811E-001   6.60739249E-001   9.60447873E-001
   1.30000000E+002   9.64487373E-001   6.60748878E-001   9.64485783E-001
   1.35000000E+002   9.67949866E-001   6.60756522E-001   9.67948544E-001
   1.40000000E+002   9.70753086E-001   6.60762642E-001   9.70751967E-001
   1.45000000E+002   9.73491409E-001   6.60767581E-001   9.73490463E-001
   1.50000000E+002   9.75737216E-001   6.60771596E-001   9.75736407E-001
   1.55000000E+002   9.78394551E-001   6.60774884E-001   9.78393871E-001
   1.60000000E+002   9.79869412E-001   6.60777592E-001   9.79868816E-001
   1.65000000E+002   9.81667247E-001   6.60779838E-001   9.81666733E-001
   1.70000000E+002   9.83186110E-001   6.60781710E-001   9.83185663E-001
   1.75000000E+002   9.84740471E-001   6.60783279E-001   9.84740083E-001
   1.80000000E+002   9.86157285E-001   6.60784600E-001   9.86156947E-001
   1.85000000E+002   9.87423149E-001   6.60785719E-001   9.87422854E-001
   1.90000000E+002   9.88126294E-001   6.60786670E-001   9.88126031E-001
   1.95000000E+002   9.89298362E-001   6.60787482E-001   9.89298131E-001
   2.00000000E+002   9.90253729E-001   6.60788179E-001   9.90253524E-001
   2.05000000E+002   9.91028645E-001   6.60788778E-001   9.91028463E-001
   2.10000000E+002   9.91717090E-001   6.60789296E-001   9.91716927E-001
   2.15000000E+002   9.92587512E-001   6.60789744E-001   9.92587368E-001
   2.20000000E+002   9.93112382E-001   6.60790135E-001   9.93112253E-001
   2.25000000E+002   9.93729680E-001   6.60790475E-001   9.93729564E-001
   2.30000000E+002   9.94307796E-001   6.60790773E-001   9.94307692E-001
   2.35000000E+002   9.94837045E-001   6.60791035E-001   9.94836951E-001
   2.40000000E+002   9.95117285E-001   6.60791265E-001   9.95117200E-001
   2.45000000E+002   9.95622982E-001   6.60791468E-001   9.95622905E-001
