# ./jetvheto -in n3lo-fixed-order/H125-LHC13-R04-mb-0-mt-1725-xmur050-xmuf025-log.fxd -xQ 0.0625 -out benchmarks-n3lo-smallR/H125-LHC13-R04-mb-0-mt-1725-xmur050-xmuf025-xQ0625-N3LO+NNLLa.res -scheme a -order 2 -ptmax 500.01 -fixed_order 3 -loop-mass t
# process = H    
# collider = pp   
# rts =  13000.000
# M   =    125.000
# muR =     62.500
# muF =     31.250
# Q   =      7.812
# p   =      5.000
# include_c1_squared =   F
# loop_mass  = t   
# alphas(MZ) =    0.11800
# alphas(M) =    0.11264
# alphas(muR) =    0.12516
# Rjet =      0.400
# order = NNLL
# pdf name and set = PDF4LHC15_nnlo_mc.LHgrid,    0
# matching scheme = a
# total cross sections [nb] at LO, NLOdiff, NNLOdiff, N3LOdiff =     0.014513    0.020714    0.009723    0.001827
#----------------------------------------------------------------------
# the lines that follow give the jet-veto efficiencies as a function of pt
#         pt            matched eff      resummed eff     fixed-order eff
   2.00000000E+001   4.54780483E-001   1.72497301E-001   4.54817952E-001
   2.50000000E+001   5.43954293E-001   1.72867593E-001   5.43977450E-001
   3.00000000E+001   6.13955458E-001   1.72976049E-001   6.13968468E-001
   3.50000000E+001   6.70078211E-001   1.73015263E-001   6.70085613E-001
   4.00000000E+001   7.16397554E-001   1.73031718E-001   7.16401980E-001
   4.50000000E+001   7.55169624E-001   1.73039432E-001   7.55172391E-001
   5.00000000E+001   7.87460238E-001   1.73043371E-001   7.87462018E-001
   5.50000000E+001   8.15505066E-001   1.73045524E-001   8.15506260E-001
   6.00000000E+001   8.38677448E-001   1.73046768E-001   8.38678261E-001
   6.50000000E+001   8.57340387E-001   1.73047521E-001   8.57340945E-001
   7.00000000E+001   8.74704657E-001   1.73047995E-001   8.74705056E-001
   7.50000000E+001   8.89504447E-001   1.73048303E-001   8.89504737E-001
   8.00000000E+001   9.01854300E-001   1.73048509E-001   9.01854513E-001
   8.50000000E+001   9.13118886E-001   1.73048651E-001   9.13119046E-001
   9.00000000E+001   9.23012019E-001   1.73048750E-001   9.23012141E-001
   9.50000000E+001   9.30422412E-001   1.73048822E-001   9.30422504E-001
   1.00000000E+002   9.38479809E-001   1.73048873E-001   9.38479882E-001
   1.05000000E+002   9.44705463E-001   1.73048912E-001   9.44705520E-001
   1.10000000E+002   9.50991288E-001   1.73048941E-001   9.50991334E-001
   1.15000000E+002   9.56416657E-001   1.73048963E-001   9.56416694E-001
   1.20000000E+002   9.60725225E-001   1.73048980E-001   9.60725255E-001
   1.25000000E+002   9.64431790E-001   1.73048993E-001   9.64431814E-001
   1.30000000E+002   9.68234846E-001   1.73049003E-001   9.68234866E-001
   1.35000000E+002   9.71381253E-001   1.73049011E-001   9.71381270E-001
   1.40000000E+002   9.74349469E-001   1.73049018E-001   9.74349482E-001
   1.45000000E+002   9.77069665E-001   1.73049023E-001   9.77069676E-001
   1.50000000E+002   9.79385602E-001   1.73049028E-001   9.79385612E-001
   1.55000000E+002   9.81509445E-001   1.73049031E-001   9.81509453E-001
   1.60000000E+002   9.83732325E-001   1.73049034E-001   9.83732332E-001
   1.65000000E+002   9.85378420E-001   1.73049036E-001   9.85378426E-001
   1.70000000E+002   9.86737979E-001   1.73049039E-001   9.86737985E-001
   1.75000000E+002   9.88367593E-001   1.73049040E-001   9.88367598E-001
   1.80000000E+002   9.89480469E-001   1.73049042E-001   9.89480472E-001
   1.85000000E+002   9.90750006E-001   1.73049043E-001   9.90750010E-001
   1.90000000E+002   9.91752876E-001   1.73049044E-001   9.91752879E-001
   1.95000000E+002   9.92827234E-001   1.73049045E-001   9.92827236E-001
   2.00000000E+002   9.93584326E-001   1.73049045E-001   9.93584329E-001
   2.05000000E+002   9.94332877E-001   1.73049046E-001   9.94332879E-001
   2.10000000E+002   9.95015374E-001   1.73049047E-001   9.95015376E-001
   2.15000000E+002   9.95765610E-001   1.73049047E-001   9.95765611E-001
   2.20000000E+002   9.96288518E-001   1.73049048E-001   9.96288520E-001
   2.25000000E+002   9.96910825E-001   1.73049048E-001   9.96910826E-001
   2.30000000E+002   9.97350067E-001   1.73049048E-001   9.97350068E-001
   2.35000000E+002   9.97660701E-001   1.73049049E-001   9.97660702E-001
   2.40000000E+002   9.98118093E-001   1.73049049E-001   9.98118094E-001
   2.45000000E+002   9.98503413E-001   1.73049049E-001   9.98503414E-001
