# ./jetvheto -in n3lo-fixed-order/H125-LHC13-R04-mb-475-mt-1725-xmur100-xmuf200-log.fxd -xQ 0.5 -out benchmarks-n3lo-smallR/H125-LHC13-R04-mb-475-mt-1725-xmur100-xmuf200-xQ050-NNLO+NNLLa.R0-2.0.res -scheme a -order 2 -ptmax 500.01 -fixed_order 2 -small-r -loop-mass t+b -R0 2.0
# process = H    
# collider = pp   
# rts =  13000.000
# M   =    125.000
# muR =    125.000
# muF =    250.000
# Q   =     62.500
# p   =      5.000
# include_c1_squared =   F
# loop_mass  = t+b 
# alphas(MZ) =    0.11800
# alphas(M) =    0.11264
# alphas(muR) =    0.11264
# Rjet =      0.400
# order = NNLL
# pdf name and set = PDF4LHC15_nnlo_mc.LHgrid,    0
# matching scheme = a
# total cross sections [nb] at LO, NLOdiff, NNLOdiff, N3LOdiff =     0.012791    0.017144    0.009991    0.003297
#----------------------------------------------------------------------
# the lines that follow give the jet-veto efficiencies as a function of pt
#         pt            matched eff      resummed eff     fixed-order eff
   2.00000000E+001   4.96553631E-001   5.25930846E-001   4.96990142E-001
   2.50000000E+001   5.82922370E-001   6.01796998E-001   5.79781046E-001
   3.00000000E+001   6.49871218E-001   6.54798118E-001   6.43205554E-001
   3.50000000E+001   7.02568697E-001   6.91358033E-001   6.93573535E-001
   4.00000000E+001   7.44374995E-001   7.16058187E-001   7.34390203E-001
   4.50000000E+001   7.77979753E-001   7.32257262E-001   7.68110951E-001
   5.00000000E+001   8.05289620E-001   7.42495139E-001   7.96256890E-001
   5.50000000E+001   8.27862091E-001   7.48708322E-001   8.20052497E-001
   6.00000000E+001   8.46730550E-001   7.52333897E-001   8.40246247E-001
   6.50000000E+001   8.62888553E-001   7.54379715E-001   8.57652920E-001
   7.00000000E+001   8.76921783E-001   7.55505542E-001   8.72768673E-001
   7.50000000E+001   8.89141677E-001   7.56115134E-001   8.85878372E-001
   8.00000000E+001   8.99965773E-001   7.56442285E-001   8.97410399E-001
   8.50000000E+001   9.09477029E-001   7.56617115E-001   9.07474445E-001
   9.00000000E+001   9.17955841E-001   7.56710282E-001   9.16380866E-001
   9.50000000E+001   9.25483042E-001   7.56759660E-001   9.24237657E-001
   1.00000000E+002   9.32154715E-001   7.56785511E-001   9.31163638E-001
   1.05000000E+002   9.38208776E-001   7.56798712E-001   9.37414533E-001
   1.10000000E+002   9.43618080E-001   7.56805105E-001   9.42977060E-001
   1.15000000E+002   9.48482787E-001   7.56807852E-001   9.47961719E-001
   1.20000000E+002   9.52855801E-001   7.56808677E-001   9.52429312E-001
   1.25000000E+002   9.56782735E-001   7.56808522E-001   9.56431308E-001
   1.30000000E+002   9.60331786E-001   7.56807898E-001   9.60040343E-001
   1.35000000E+002   9.63578088E-001   7.56807084E-001   9.63334907E-001
   1.40000000E+002   9.66504191E-001   7.56806226E-001   9.66300093E-001
   1.45000000E+002   9.69156905E-001   7.56805399E-001   9.68984662E-001
   1.50000000E+002   9.71578958E-001   7.56804637E-001   9.71432833E-001
   1.55000000E+002   9.73775341E-001   7.56803952E-001   9.73650757E-001
   1.60000000E+002   9.75803870E-001   7.56803348E-001   9.75697154E-001
   1.65000000E+002   9.77651734E-001   7.56802818E-001   9.77559914E-001
   1.70000000E+002   9.79334020E-001   7.56802357E-001   9.79254684E-001
   1.75000000E+002   9.80846893E-001   7.56801957E-001   9.80778070E-001
   1.80000000E+002   9.82262167E-001   7.56801610E-001   9.82202234E-001
   1.85000000E+002   9.83563901E-001   7.56801309E-001   9.83511521E-001
   1.90000000E+002   9.84739294E-001   7.56801049E-001   9.84693360E-001
   1.95000000E+002   9.85828408E-001   7.56800822E-001   9.85787993E-001
   2.00000000E+002   9.86820860E-001   7.56800626E-001   9.86785191E-001
   2.05000000E+002   9.87743804E-001   7.56800454E-001   9.87712229E-001
   2.10000000E+002   9.88597782E-001   7.56800305E-001   9.88569752E-001
   2.15000000E+002   9.89385344E-001   7.56800174E-001   9.89360394E-001
   2.20000000E+002   9.90107581E-001   7.56800060E-001   9.90085314E-001
   2.25000000E+002   9.90770647E-001   7.56799959E-001   9.90750725E-001
   2.30000000E+002   9.91394969E-001   7.56799871E-001   9.91377103E-001
   2.35000000E+002   9.91976812E-001   7.56799793E-001   9.91960753E-001
   2.40000000E+002   9.92489672E-001   7.56799724E-001   9.92475205E-001
   2.45000000E+002   9.92984067E-001   7.56799663E-001   9.92971008E-001
