# ./jetvheto -in n3lo-fixed-order/H125-LHC13-R04-mb-475-mt-1725-xmur100-xmuf050-log.fxd -xQ 0.5 -out benchmarks-n3lo-smallR/H125-LHC13-R04-mb-475-mt-1725-xmur100-xmuf050-xQ050-NNLO+NNLLb.R0-1.5.res -scheme b -order 2 -ptmax 500.01 -fixed_order 2 -small-r -loop-mass t+b -R0 1.5
# process = H    
# collider = pp   
# rts =  13000.000
# M   =    125.000
# muR =    125.000
# muF =     62.500
# Q   =     62.500
# p   =      5.000
# include_c1_squared =   F
# loop_mass  = t+b 
# alphas(MZ) =    0.11800
# alphas(M) =    0.11264
# alphas(muR) =    0.11264
# Rjet =      0.400
# order = NNLL
# pdf name and set = PDF4LHC15_nnlo_mc.LHgrid,    0
# matching scheme = b
# total cross sections [nb] at LO, NLOdiff, NNLOdiff, N3LOdiff =     0.011575    0.016866    0.010424    0.004163
#----------------------------------------------------------------------
# the lines that follow give the jet-veto efficiencies as a function of pt
#         pt            matched eff      resummed eff     fixed-order eff
   2.00000000E+001   3.90730901E-001   4.90705123E-001   3.01797175E-001
   2.50000000E+001   4.73824823E-001   5.70856272E-001   4.12444386E-001
   3.00000000E+001   5.42472236E-001   6.28265535E-001   4.98409551E-001
   3.50000000E+001   5.99661435E-001   6.68901884E-001   5.67166648E-001
   4.00000000E+001   6.47521970E-001   6.97181379E-001   6.23168191E-001
   4.50000000E+001   6.88326245E-001   7.16398857E-001   6.69933084E-001
   5.00000000E+001   7.23193843E-001   7.29096797E-001   7.09277749E-001
   5.50000000E+001   7.53152138E-001   7.37255681E-001   7.42632321E-001
   6.00000000E+001   7.79202916E-001   7.42380694E-001   7.71258431E-001
   6.50000000E+001   8.01946740E-001   7.45556126E-001   7.95947126E-001
   7.00000000E+001   8.22051898E-001   7.47519198E-001   8.17511462E-001
   7.50000000E+001   8.39678412E-001   7.48743526E-001   8.36227208E-001
   8.00000000E+001   8.55373161E-001   7.49520538E-001   8.52733853E-001
   8.50000000E+001   8.69388806E-001   7.50024951E-001   8.67355329E-001
   9.00000000E+001   8.81767523E-001   7.50360837E-001   8.80188173E-001
   9.50000000E+001   8.92780487E-001   7.50590310E-001   8.91543074E-001
   1.00000000E+002   9.02689845E-001   7.50750952E-001   9.01711868E-001
   1.05000000E+002   9.11568048E-001   7.50865964E-001   9.10788355E-001
   1.10000000E+002   9.19485583E-001   7.50949995E-001   9.18858861E-001
   1.15000000E+002   9.26662724E-001   7.51012513E-001   9.26154870E-001
   1.20000000E+002   9.33106067E-001   7.51059783E-001   9.32691413E-001
   1.25000000E+002   9.38984871E-001   7.51096042E-001   9.38643846E-001
   1.30000000E+002   9.44241903E-001   7.51124213E-001   9.43959515E-001
   1.35000000E+002   9.49004653E-001   7.51146354E-001   9.48769326E-001
   1.40000000E+002   9.53361005E-001   7.51163938E-001   9.53163692E-001
   1.45000000E+002   9.57304092E-001   7.51178034E-001   9.57137703E-001
   1.50000000E+002   9.60919098E-001   7.51189432E-001   9.60778030E-001
   1.55000000E+002   9.64204734E-001   7.51198721E-001   9.64084524E-001
   1.60000000E+002   9.67193665E-001   7.51206346E-001   9.67090738E-001
   1.65000000E+002   9.69906799E-001   7.51212647E-001   9.69818268E-001
   1.70000000E+002   9.72379577E-001   7.51217886E-001   9.72303105E-001
   1.75000000E+002   9.74673264E-001   7.51222268E-001   9.74606939E-001
   1.80000000E+002   9.76738346E-001   7.51225952E-001   9.76680599E-001
   1.85000000E+002   9.78660999E-001   7.51229065E-001   9.78610537E-001
   1.90000000E+002   9.80413190E-001   7.51231709E-001   9.80368941E-001
   1.95000000E+002   9.82017168E-001   7.51233964E-001   9.81978238E-001
   2.00000000E+002   9.83483509E-001   7.51235895E-001   9.83449152E-001
   2.05000000E+002   9.84836945E-001   7.51237556E-001   9.84806533E-001
   2.10000000E+002   9.86054490E-001   7.51238990E-001   9.86027493E-001
   2.15000000E+002   9.87208418E-001   7.51240231E-001   9.87184387E-001
   2.20000000E+002   9.88269918E-001   7.51241311E-001   9.88248471E-001
   2.25000000E+002   9.89215145E-001   7.51242252E-001   9.89195956E-001
   2.30000000E+002   9.90124549E-001   7.51243076E-001   9.90107340E-001
   2.35000000E+002   9.90929753E-001   7.51243798E-001   9.90914285E-001
   2.40000000E+002   9.91684963E-001   7.51244434E-001   9.91671028E-001
   2.45000000E+002   9.92366189E-001   7.51244995E-001   9.92353610E-001
