# ./jetvheto -in n3lo-fixed-order/H125-LHC13-R04-mb-0-mt-1725-xmur025-xmuf025-log.fxd -xQ 0.25 -out benchmarks-n3lo-smallR/H125-LHC13-R04-mb-0-mt-1725-xmur025-xmuf025-xQ025-N3LO+NNLLa.R0-1.5.res -scheme a -order 2 -ptmax 500.01 -small-r -fixed_order 3 -loop-mass t -R0 1.5
# process = H    
# collider = pp   
# rts =  13000.000
# M   =    125.000
# muR =     31.250
# muF =     31.250
# Q   =     31.250
# p   =      5.000
# include_c1_squared =   F
# loop_mass  = t   
# alphas(MZ) =    0.11800
# alphas(M) =    0.11264
# alphas(muR) =    0.14091
# Rjet =      0.400
# order = NNLL
# pdf name and set = PDF4LHC15_nnlo_mc.LHgrid,    0
# matching scheme = a
# total cross sections [nb] at LO, NLOdiff, NNLOdiff, N3LOdiff =     0.018140    0.025356    0.006043   -0.002471
#----------------------------------------------------------------------
# the lines that follow give the jet-veto efficiencies as a function of pt
#         pt            matched eff      resummed eff     fixed-order eff
   2.00000000E+001   4.62062323E-001   4.47173609E-001   4.60281449E-001
   2.50000000E+001   5.52124252E-001   5.09411491E-001   5.50385931E-001
   3.00000000E+001   6.22620880E-001   5.46383329E-001   6.21139730E-001
   3.50000000E+001   6.78735569E-001   5.66648444E-001   6.77588964E-001
   4.00000000E+001   7.25330552E-001   5.77341744E-001   7.24527077E-001
   4.50000000E+001   7.64667495E-001   5.83008134E-001   7.64122223E-001
   5.00000000E+001   7.97212174E-001   5.86099426E-001   7.96835644E-001
   5.50000000E+001   8.26084895E-001   5.87852486E-001   8.25828649E-001
   6.00000000E+001   8.49317977E-001   5.88887195E-001   8.49134989E-001
   6.50000000E+001   8.66988983E-001   5.89521343E-001   8.66851489E-001
   7.00000000E+001   8.84417025E-001   5.89923495E-001   8.84316376E-001
   7.50000000E+001   8.99147113E-001   5.90186423E-001   8.99072184E-001
   8.00000000E+001   9.10833452E-001   5.90363052E-001   9.10775817E-001
   8.50000000E+001   9.21905424E-001   5.90484605E-001   9.21861220E-001
   9.00000000E+001   9.31563414E-001   5.90570076E-001   9.31529078E-001
   9.50000000E+001   9.37775748E-001   5.90631346E-001   9.37748099E-001
   1.00000000E+002   9.45898254E-001   5.90676035E-001   9.45876515E-001
   1.05000000E+002   9.51407649E-001   5.90709144E-001   9.51390040E-001
   1.10000000E+002   9.57675345E-001   5.90734025E-001   9.57661210E-001
   1.15000000E+002   9.62878252E-001   5.90752966E-001   9.62866750E-001
   1.20000000E+002   9.66555572E-001   5.90767557E-001   9.66546049E-001
   1.25000000E+002   9.69625517E-001   5.90778920E-001   9.69617581E-001
   1.30000000E+002   9.73188777E-001   5.90787857E-001   9.73182178E-001
   1.35000000E+002   9.75902015E-001   5.90794951E-001   9.75896468E-001
   1.40000000E+002   9.78575825E-001   5.90800632E-001   9.78571151E-001
   1.45000000E+002   9.81029746E-001   5.90805216E-001   9.81025787E-001
   1.50000000E+002   9.83020451E-001   5.90808943E-001   9.83017075E-001
   1.55000000E+002   9.84866990E-001   5.90811994E-001   9.84864101E-001
   1.60000000E+002   9.87057786E-001   5.90814508E-001   9.87055315E-001
   1.65000000E+002   9.88376939E-001   5.90816592E-001   9.88374802E-001
   1.70000000E+002   9.89353928E-001   5.90818329E-001   9.89352070E-001
   1.75000000E+002   9.90942217E-001   5.90819786E-001   9.90940607E-001
   1.80000000E+002   9.91719344E-001   5.90821012E-001   9.91717934E-001
   1.85000000E+002   9.92899470E-001   5.90822051E-001   9.92898239E-001
   1.90000000E+002   9.93680836E-001   5.90822934E-001   9.93679753E-001
   1.95000000E+002   9.94672620E-001   5.90823687E-001   9.94671667E-001
   2.00000000E+002   9.95194274E-001   5.90824334E-001   9.95193430E-001
   2.05000000E+002   9.95758164E-001   5.90824890E-001   9.95757415E-001
   2.10000000E+002   9.96264856E-001   5.90825370E-001   9.96264190E-001
   2.15000000E+002   9.96993001E-001   5.90825787E-001   9.96992409E-001
   2.20000000E+002   9.97344207E-001   5.90826149E-001   9.97343677E-001
   2.25000000E+002   9.97917284E-001   5.90826465E-001   9.97916811E-001
   2.30000000E+002   9.98226208E-001   5.90826742E-001   9.98225783E-001
   2.35000000E+002   9.98346086E-001   5.90826985E-001   9.98345703E-001
   2.40000000E+002   9.98774924E-001   5.90827198E-001   9.98774579E-001
   2.45000000E+002   9.99097429E-001   5.90827387E-001   9.99097118E-001
