# ./jetvheto -in n3lo-fixed-order/H125-LHC13-R04-mb-475-mt-1725-xmur050-xmuf100-log.fxd -xQ 0.0625 -out benchmarks-n3lo-smallR/H125-LHC13-R04-mb-475-mt-1725-xmur050-xmuf100-xQ0625-NNLO+NNLLa.R0-1.5.res -scheme a -order 2 -ptmax 500.01 -fixed_order 2 -small-r -loop-mass t+b -R0 1.5
# process = H    
# collider = pp   
# rts =  13000.000
# M   =    125.000
# muR =     62.500
# muF =    125.000
# Q   =      7.812
# p   =      5.000
# include_c1_squared =   F
# loop_mass  = t+b 
# alphas(MZ) =    0.11800
# alphas(M) =    0.11264
# alphas(muR) =    0.12516
# Rjet =      0.400
# order = NNLL
# pdf name and set = PDF4LHC15_nnlo_mc.LHgrid,    0
# matching scheme = a
# total cross sections [nb] at LO, NLOdiff, NNLOdiff, N3LOdiff =     0.015023    0.020252    0.008553    0.000949
#----------------------------------------------------------------------
# the lines that follow give the jet-veto efficiencies as a function of pt
#         pt            matched eff      resummed eff     fixed-order eff
   2.00000000E+001   4.52910572E-001   1.74431440E-001   4.52947522E-001
   2.50000000E+001   5.40604673E-001   1.74795948E-001   5.40649579E-001
   3.00000000E+001   6.09117775E-001   1.74902706E-001   6.09146724E-001
   3.50000000E+001   6.64019086E-001   1.74941305E-001   6.64036606E-001
   4.00000000E+001   7.08762202E-001   1.74957502E-001   7.08772946E-001
   4.50000000E+001   7.45778340E-001   1.74965095E-001   7.45785109E-001
   5.00000000E+001   7.76818898E-001   1.74968972E-001   7.76823295E-001
   5.50000000E+001   8.03000966E-001   1.74971092E-001   8.03003904E-001
   6.00000000E+001   8.25498037E-001   1.74972317E-001   8.25500055E-001
   6.50000000E+001   8.44870574E-001   1.74973058E-001   8.44871993E-001
   7.00000000E+001   8.61588110E-001   1.74973524E-001   8.61589128E-001
   7.50000000E+001   8.76127787E-001   1.74973827E-001   8.76128533E-001
   8.00000000E+001   8.88911563E-001   1.74974030E-001   8.88912118E-001
   8.50000000E+001   9.00035357E-001   1.74974170E-001   9.00035777E-001
   9.00000000E+001   9.09955298E-001   1.74974268E-001   9.09955619E-001
   9.50000000E+001   9.18656583E-001   1.74974338E-001   9.18656833E-001
   1.00000000E+002   9.26378024E-001   1.74974389E-001   9.26378220E-001
   1.05000000E+002   9.33279650E-001   1.74974427E-001   9.33279806E-001
   1.10000000E+002   9.39354699E-001   1.74974455E-001   9.39354824E-001
   1.15000000E+002   9.44855166E-001   1.74974477E-001   9.44855267E-001
   1.20000000E+002   9.49711028E-001   1.74974493E-001   9.49711111E-001
   1.25000000E+002   9.54143458E-001   1.74974506E-001   9.54143526E-001
   1.30000000E+002   9.58115173E-001   1.74974517E-001   9.58115228E-001
   1.35000000E+002   9.61723153E-001   1.74974525E-001   9.61723200E-001
   1.40000000E+002   9.64931933E-001   1.74974531E-001   9.64931972E-001
   1.45000000E+002   9.67914374E-001   1.74974536E-001   9.67914407E-001
   1.50000000E+002   9.70548969E-001   1.74974541E-001   9.70548997E-001
   1.55000000E+002   9.72982016E-001   1.74974544E-001   9.72982040E-001
   1.60000000E+002   9.75190109E-001   1.74974547E-001   9.75190129E-001
   1.65000000E+002   9.77193716E-001   1.74974549E-001   9.77193733E-001
   1.70000000E+002   9.79035719E-001   1.74974551E-001   9.79035734E-001
   1.75000000E+002   9.80688488E-001   1.74974553E-001   9.80688502E-001
   1.80000000E+002   9.82213395E-001   1.74974554E-001   9.82213406E-001
   1.85000000E+002   9.83597469E-001   1.74974556E-001   9.83597479E-001
   1.90000000E+002   9.84873393E-001   1.74974557E-001   9.84873402E-001
   1.95000000E+002   9.86066030E-001   1.74974557E-001   9.86066038E-001
   2.00000000E+002   9.87139178E-001   1.74974558E-001   9.87139184E-001
   2.05000000E+002   9.88138442E-001   1.74974559E-001   9.88138448E-001
   2.10000000E+002   9.89045535E-001   1.74974559E-001   9.89045540E-001
   2.15000000E+002   9.89858870E-001   1.74974560E-001   9.89858874E-001
   2.20000000E+002   9.90630455E-001   1.74974560E-001   9.90630459E-001
   2.25000000E+002   9.91333457E-001   1.74974561E-001   9.91333461E-001
   2.30000000E+002   9.91981282E-001   1.74974561E-001   9.91981285E-001
   2.35000000E+002   9.92590814E-001   1.74974561E-001   9.92590817E-001
   2.40000000E+002   9.93132439E-001   1.74974561E-001   9.93132441E-001
   2.45000000E+002   9.93647870E-001   1.74974562E-001   9.93647873E-001
