# ./jetvheto -in n3lo-fixed-order/H125-LHC13-R04-mb-475-mt-1725-xmur050-xmuf050-log.fxd -xQ 0.125 -out benchmarks-n3lo-smallR/H125-LHC13-R04-mb-475-mt-1725-xmur050-xmuf050-xQ0125-N3LO+NNLLa.R0-1.0.res -scheme a -order 2 -ptmax 500.01 -fixed_order 3 -small-r -loop-mass t+b -R0 1.0
# process = H    
# collider = pp   
# rts =  13000.000
# M   =    125.000
# muR =     62.500
# muF =     62.500
# Q   =     15.625
# p   =      5.000
# include_c1_squared =   F
# loop_mass  = t+b 
# alphas(MZ) =    0.11800
# alphas(M) =    0.11264
# alphas(muR) =    0.12516
# Rjet =      0.400
# order = NNLL
# pdf name and set = PDF4LHC15_nnlo_mc.LHgrid,    0
# matching scheme = a
# total cross sections [nb] at LO, NLOdiff, NNLOdiff, N3LOdiff =     0.014147    0.020254    0.008998    0.001413
#----------------------------------------------------------------------
# the lines that follow give the jet-veto efficiencies as a function of pt
#         pt            matched eff      resummed eff     fixed-order eff
   2.00000000E+001   4.40548569E-001   4.21785199E-001   4.41074844E-001
   2.50000000E+001   5.26039391E-001   4.35646227E-001   5.26291803E-001
   3.00000000E+001   5.99422146E-001   4.40163030E-001   5.99588615E-001
   3.50000000E+001   6.58003903E-001   4.41855556E-001   6.58104134E-001
   4.00000000E+001   7.03641541E-001   4.42575703E-001   7.03699261E-001
   4.50000000E+001   7.43871743E-001   4.42915348E-001   7.43908515E-001
   5.00000000E+001   7.76244423E-001   4.43089299E-001   7.76267730E-001
   5.50000000E+001   8.04422799E-001   4.43184535E-001   8.04438345E-001
   6.00000000E+001   8.27657378E-001   4.43239614E-001   8.27667847E-001
   6.50000000E+001   8.49066060E-001   4.43272962E-001   8.49073502E-001
   7.00000000E+001   8.65761843E-001   4.43293950E-001   8.65767048E-001
   7.50000000E+001   8.80670333E-001   4.43307605E-001   8.80674091E-001
   8.00000000E+001   8.94135255E-001   4.43316748E-001   8.94138038E-001
   8.50000000E+001   9.06104737E-001   4.43323027E-001   9.06106835E-001
   9.00000000E+001   9.16609403E-001   4.43327436E-001   9.16611008E-001
   9.50000000E+001   9.25077250E-001   4.43330592E-001   9.25078477E-001
   1.00000000E+002   9.33100829E-001   4.43332893E-001   9.33101787E-001
   1.05000000E+002   9.39584855E-001   4.43334596E-001   9.39585604E-001
   1.10000000E+002   9.45494596E-001   4.43335876E-001   9.45495190E-001
   1.15000000E+002   9.51093628E-001   4.43336850E-001   9.51094105E-001
   1.20000000E+002   9.56107290E-001   4.43337600E-001   9.56107678E-001
   1.25000000E+002   9.60295962E-001   4.43338184E-001   9.60296277E-001
   1.30000000E+002   9.63937765E-001   4.43338643E-001   9.63938023E-001
   1.35000000E+002   9.67546677E-001   4.43339007E-001   9.67546891E-001
   1.40000000E+002   9.70830071E-001   4.43339299E-001   9.70830250E-001
   1.45000000E+002   9.73664494E-001   4.43339535E-001   9.73664645E-001
   1.50000000E+002   9.75887694E-001   4.43339726E-001   9.75887820E-001
   1.55000000E+002   9.78411422E-001   4.43339883E-001   9.78411529E-001
   1.60000000E+002   9.80668003E-001   4.43340012E-001   9.80668095E-001
   1.65000000E+002   9.82074067E-001   4.43340119E-001   9.82074144E-001
   1.70000000E+002   9.83849973E-001   4.43340208E-001   9.83850040E-001
   1.75000000E+002   9.85520577E-001   4.43340283E-001   9.85520635E-001
   1.80000000E+002   9.86797296E-001   4.43340346E-001   9.86797346E-001
   1.85000000E+002   9.87975348E-001   4.43340399E-001   9.87975392E-001
   1.90000000E+002   9.89172299E-001   4.43340445E-001   9.89172337E-001
   1.95000000E+002   9.90274778E-001   4.43340483E-001   9.90274812E-001
   2.00000000E+002   9.91246333E-001   4.43340516E-001   9.91246363E-001
   2.05000000E+002   9.92022391E-001   4.43340545E-001   9.92022417E-001
   2.10000000E+002   9.92795385E-001   4.43340570E-001   9.92795408E-001
   2.15000000E+002   9.93402900E-001   4.43340591E-001   9.93402921E-001
   2.20000000E+002   9.94259292E-001   4.43340610E-001   9.94259310E-001
   2.25000000E+002   9.94706363E-001   4.43340626E-001   9.94706379E-001
   2.30000000E+002   9.95249329E-001   4.43340640E-001   9.95249343E-001
   2.35000000E+002   9.95653988E-001   4.43340653E-001   9.95654001E-001
   2.40000000E+002   9.96087970E-001   4.43340664E-001   9.96087982E-001
   2.45000000E+002   9.96585692E-001   4.43340673E-001   9.96585702E-001
