# ./jetvheto -in n3lo-fixed-order/H125-LHC13-R04-mb-0-mt-1725-xmur050-xmuf050-log.fxd -xQ 0.333 -out benchmarks-n3lo-smallR/H125-LHC13-R04-mb-0-mt-1725-xmur050-xmuf050-xQ033-NNLO+NNLLa.R0-0.5.res -scheme a -order 2 -ptmax 500.01 -small-r -fixed_order 2 -loop-mass t -R0 0.5
# process = H    
# collider = pp   
# rts =  13000.000
# M   =    125.000
# muR =     62.500
# muF =     62.500
# Q   =     41.625
# p   =      5.000
# include_c1_squared =   F
# loop_mass  = t   
# alphas(MZ) =    0.11800
# alphas(M) =    0.11264
# alphas(muR) =    0.12516
# Rjet =      0.400
# order = NNLL
# pdf name and set = PDF4LHC15_nnlo_mc.LHgrid,    0
# matching scheme = a
# total cross sections [nb] at LO, NLOdiff, NNLOdiff, N3LOdiff =     0.015885    0.020561    0.008998    0.001413
#----------------------------------------------------------------------
# the lines that follow give the jet-veto efficiencies as a function of pt
#         pt            matched eff      resummed eff     fixed-order eff
   2.00000000E+001   4.64595930E-001   4.88376947E-001   4.69057413E-001
   2.50000000E+001   5.52065165E-001   5.65420636E-001   5.55288671E-001
   3.00000000E+001   6.20624456E-001   6.17665682E-001   6.22338019E-001
   3.50000000E+001   6.75167192E-001   6.51583570E-001   6.75875821E-001
   4.00000000E+001   7.19180690E-001   6.72681127E-001   7.19396295E-001
   4.50000000E+001   7.55317838E-001   6.85414437E-001   7.55344248E-001
   5.00000000E+001   7.85710472E-001   6.93017291E-001   7.85683467E-001
   5.50000000E+001   8.11051675E-001   6.97588721E-001   8.11020538E-001
   6.00000000E+001   8.32781140E-001   7.00388650E-001   8.32757246E-001
   6.50000000E+001   8.51517727E-001   7.02145462E-001   8.51501964E-001
   7.00000000E+001   8.67744016E-001   7.03276539E-001   8.67734675E-001
   7.50000000E+001   8.81768486E-001   7.04023414E-001   8.81763053E-001
   8.00000000E+001   8.94090000E-001   7.04528499E-001   8.94087077E-001
   8.50000000E+001   9.04948048E-001   7.04877679E-001   9.04946611E-001
   9.00000000E+001   9.14517879E-001   7.05123991E-001   9.14517318E-001
   9.50000000E+001   9.22903212E-001   7.05300960E-001   9.22903074E-001
   1.00000000E+002   9.30440072E-001   7.05430249E-001   9.30440166E-001
   1.05000000E+002   9.37035066E-001   7.05526154E-001   9.37035250E-001
   1.10000000E+002   9.42936431E-001   7.05598290E-001   9.42936658E-001
   1.15000000E+002   9.48232339E-001   7.05653243E-001   9.48232561E-001
   1.20000000E+002   9.52997942E-001   7.05695597E-001   9.52998144E-001
   1.25000000E+002   9.57326286E-001   7.05728592E-001   9.57326460E-001
   1.30000000E+002   9.61148507E-001   7.05754553E-001   9.61148649E-001
   1.35000000E+002   9.64601662E-001   7.05775167E-001   9.64601780E-001
   1.40000000E+002   9.67750839E-001   7.05791675E-001   9.67750932E-001
   1.45000000E+002   9.70612568E-001   7.05804999E-001   9.70612637E-001
   1.50000000E+002   9.73232511E-001   7.05815834E-001   9.73232562E-001
   1.55000000E+002   9.75586960E-001   7.05824704E-001   9.75586996E-001
   1.60000000E+002   9.77727223E-001   7.05832014E-001   9.77727247E-001
   1.65000000E+002   9.79660877E-001   7.05838074E-001   9.79660891E-001
   1.70000000E+002   9.81439597E-001   7.05843126E-001   9.81439603E-001
   1.75000000E+002   9.83053669E-001   7.05847361E-001   9.83053670E-001
   1.80000000E+002   9.84507526E-001   7.05850929E-001   9.84507522E-001
   1.85000000E+002   9.85854284E-001   7.05853948E-001   9.85854277E-001
   1.90000000E+002   9.87085423E-001   7.05856516E-001   9.87085413E-001
   1.95000000E+002   9.88208326E-001   7.05858708E-001   9.88208314E-001
   2.00000000E+002   9.89235986E-001   7.05860588E-001   9.89235973E-001
   2.05000000E+002   9.90177773E-001   7.05862206E-001   9.90177759E-001
   2.10000000E+002   9.91021291E-001   7.05863604E-001   9.91021276E-001
   2.15000000E+002   9.91819655E-001   7.05864815E-001   9.91819641E-001
   2.20000000E+002   9.92549076E-001   7.05865869E-001   9.92549062E-001
   2.25000000E+002   9.93196767E-001   7.05866788E-001   9.93196753E-001
   2.30000000E+002   9.93833110E-001   7.05867593E-001   9.93833097E-001
   2.35000000E+002   9.94380375E-001   7.05868299E-001   9.94380362E-001
   2.40000000E+002   9.94897913E-001   7.05868921E-001   9.94897900E-001
   2.45000000E+002   9.95371218E-001   7.05869469E-001   9.95371206E-001
