# ./jetvheto -in n3lo-fixed-order/H125-LHC13-R04-mb-0-mt-1725-xmur050-xmuf100-log.fxd -xQ 0.5 -out benchmarks-n3lo-smallR/H125-LHC13-R04-mb-0-mt-1725-xmur050-xmuf100-xQ050-NNLO+NNLLa.R0-1.0.res -scheme a -order 2 -ptmax 500.01 -small-r -fixed_order 2 -loop-mass t -R0 1.0
# process = H    
# collider = pp   
# rts =  13000.000
# M   =    125.000
# muR =     62.500
# muF =    125.000
# Q   =     62.500
# p   =      5.000
# include_c1_squared =   F
# loop_mass  = t   
# alphas(MZ) =    0.11800
# alphas(M) =    0.11264
# alphas(muR) =    0.12516
# Rjet =      0.400
# order = NNLL
# pdf name and set = PDF4LHC15_nnlo_mc.LHgrid,    0
# matching scheme = a
# total cross sections [nb] at LO, NLOdiff, NNLOdiff, N3LOdiff =     0.016868    0.020591    0.008553    0.000949
#----------------------------------------------------------------------
# the lines that follow give the jet-veto efficiencies as a function of pt
#         pt            matched eff      resummed eff     fixed-order eff
   2.00000000E+001   4.95394933E-001   5.14145837E-001   4.73976153E-001
   2.50000000E+001   5.80606370E-001   5.90464229E-001   5.60164869E-001
   3.00000000E+001   6.46656943E-001   6.43775491E-001   6.27003093E-001
   3.50000000E+001   6.98642495E-001   6.80542929E-001   6.80216456E-001
   4.00000000E+001   7.40159319E-001   7.05379715E-001   7.23510277E-001
   4.50000000E+001   7.73580394E-001   7.21674035E-001   7.59082862E-001
   5.00000000E+001   8.01031851E-001   7.31983247E-001   7.88824462E-001
   5.50000000E+001   8.23849840E-001   7.38250310E-001   8.13863409E-001
   6.00000000E+001   8.43281769E-001   7.41916516E-001   8.35297139E-001
   6.50000000E+001   8.59992443E-001   7.43993326E-001   8.53708674E-001
   7.00000000E+001   8.74425000E-001   7.45142679E-001   8.69526715E-001
   7.50000000E+001   8.87156200E-001   7.45770022E-001   8.83351716E-001
   8.00000000E+001   8.98407451E-001   7.46110544E-001   8.95451407E-001
   8.50000000E+001   9.08285719E-001   7.46295371E-001   9.05981154E-001
   9.00000000E+001   9.17122170E-001   7.46396020E-001   9.15315906E-001
   9.50000000E+001   9.24933072E-001   7.46451042E-001   9.23508029E-001
   1.00000000E+002   9.31926253E-001   7.46481182E-001   9.30793701E-001
   1.05000000E+002   9.38185489E-001   7.46497647E-001   9.37278625E-001
   1.10000000E+002   9.43725517E-001   7.46506543E-001   9.42993970E-001
   1.15000000E+002   9.48764452E-001   7.46511226E-001   9.48169910E-001
   1.20000000E+002   9.53254204E-001   7.46513560E-001   9.52767570E-001
   1.25000000E+002   9.57325056E-001   7.46514591E-001   9.56924018E-001
   1.30000000E+002   9.61001516E-001   7.46514908E-001   9.60668851E-001
   1.35000000E+002   9.64321625E-001   7.46514845E-001   9.64043988E-001
   1.40000000E+002   9.67300463E-001   7.46514591E-001   9.67067374E-001
   1.45000000E+002   9.70060957E-001   7.46514253E-001   9.69864187E-001
   1.50000000E+002   9.72502137E-001   7.46513890E-001   9.72335157E-001
   1.55000000E+002   9.74759810E-001   7.46513534E-001   9.74617398E-001
   1.60000000E+002   9.76826692E-001   7.46513199E-001   9.76704664E-001
   1.65000000E+002   9.78689408E-001   7.46512894E-001   9.78584384E-001
   1.70000000E+002   9.80406023E-001   7.46512621E-001   9.80315252E-001
   1.75000000E+002   9.81941131E-001   7.46512378E-001   9.81862367E-001
   1.80000000E+002   9.83367438E-001   7.46512164E-001   9.83298832E-001
   1.85000000E+002   9.84655483E-001   7.46511976E-001   9.84595510E-001
   1.90000000E+002   9.85849777E-001   7.46511811E-001   9.85797170E-001
   1.95000000E+002   9.86958474E-001   7.46511666E-001   9.86912179E-001
   2.00000000E+002   9.87957110E-001   7.46511540E-001   9.87916243E-001
   2.05000000E+002   9.88891278E-001   7.46511429E-001   9.88855095E-001
   2.10000000E+002   9.89732915E-001   7.46511331E-001   9.89700789E-001
   2.15000000E+002   9.90495303E-001   7.46511246E-001   9.90466701E-001
   2.20000000E+002   9.91215626E-001   7.46511171E-001   9.91190097E-001
   2.25000000E+002   9.91872133E-001   7.46511105E-001   9.91849289E-001
   2.30000000E+002   9.92479368E-001   7.46511046E-001   9.92458878E-001
   2.35000000E+002   9.93052227E-001   7.46510995E-001   9.93033808E-001
   2.40000000E+002   9.93560792E-001   7.46510949E-001   9.93544198E-001
   2.45000000E+002   9.94041789E-001   7.46510908E-001   9.94026807E-001
