# ./jetvheto -in n3lo-fixed-order/H125-LHC13-R04-mb-0-mt-1725-xmur050-xmuf025-log.fxd -xQ 0.25 -out benchmarks-n3lo-smallR/H125-LHC13-R04-mb-0-mt-1725-xmur050-xmuf025-xQ025-NNLO+NNLLb.res -scheme b -order 2 -ptmax 500.01 -fixed_order 2 -loop-mass t
# process = H    
# collider = pp   
# rts =  13000.000
# M   =    125.000
# muR =     62.500
# muF =     31.250
# Q   =     31.250
# p   =      5.000
# include_c1_squared =   F
# loop_mass  = t   
# alphas(MZ) =    0.11800
# alphas(M) =    0.11264
# alphas(muR) =    0.12516
# Rjet =      0.400
# order = NNLL
# pdf name and set = PDF4LHC15_nnlo_mc.LHgrid,    0
# matching scheme = b
# total cross sections [nb] at LO, NLOdiff, NNLOdiff, N3LOdiff =     0.014513    0.020714    0.009723    0.001827
#----------------------------------------------------------------------
# the lines that follow give the jet-veto efficiencies as a function of pt
#         pt            matched eff      resummed eff     fixed-order eff
   2.00000000E+001   3.72855610E-001   4.84945277E-001   3.17487847E-001
   2.50000000E+001   4.55915861E-001   5.56928130E-001   4.26754407E-001
   3.00000000E+001   5.26825444E-001   5.99873778E-001   5.11966558E-001
   3.50000000E+001   5.87978382E-001   6.23474389E-001   5.80470117E-001
   4.00000000E+001   6.40237330E-001   6.35946699E-001   6.36364792E-001
   4.50000000E+001   6.84682937E-001   6.42561470E-001   6.82611528E-001
   5.00000000E+001   7.22697640E-001   6.46171886E-001   7.21540031E-001
   5.50000000E+001   7.55119247E-001   6.48219899E-001   7.54444177E-001
   6.00000000E+001   7.83044436E-001   6.49428891E-001   7.82634803E-001
   6.50000000E+001   8.07235420E-001   6.50169924E-001   8.06977613E-001
   7.00000000E+001   8.28296469E-001   6.50639887E-001   8.28128874E-001
   7.50000000E+001   8.46500316E-001   6.50947162E-001   8.46387939E-001
   8.00000000E+001   8.62643554E-001   6.51153587E-001   8.62566302E-001
   8.50000000E+001   8.76760209E-001   6.51295649E-001   8.76705809E-001
   9.00000000E+001   8.89285268E-001   6.51395541E-001   8.89246129E-001
   9.50000000E+001   9.00269849E-001   6.51467149E-001   9.00241110E-001
   1.00000000E+002   9.10111227E-001   6.51519379E-001   9.10089763E-001
   1.05000000E+002   9.18914957E-001   6.51558076E-001   9.18898671E-001
   1.10000000E+002   9.26722250E-001   6.51587156E-001   9.26709709E-001
   1.15000000E+002   9.33791726E-001   6.51609294E-001   9.33781944E-001
   1.20000000E+002   9.40127277E-001   6.51626347E-001   9.40119549E-001
   1.25000000E+002   9.45739887E-001   6.51639627E-001   9.45733708E-001
   1.30000000E+002   9.50853845E-001   6.51650072E-001   9.50848857E-001
   1.35000000E+002   9.55456709E-001   6.51658364E-001   9.55452646E-001
   1.40000000E+002   9.59632871E-001   6.51665003E-001   9.59629530E-001
   1.45000000E+002   9.63457158E-001   6.51670361E-001   9.63454390E-001
   1.50000000E+002   9.66878416E-001   6.51674717E-001   9.66876104E-001
   1.55000000E+002   9.69988702E-001   6.51678283E-001   9.69986758E-001
   1.60000000E+002   9.72839661E-001   6.51681221E-001   9.72838016E-001
   1.65000000E+002   9.75432591E-001   6.51683657E-001   9.75431192E-001
   1.70000000E+002   9.77761686E-001   6.51685688E-001   9.77760487E-001
   1.75000000E+002   9.79890639E-001   6.51687390E-001   9.79889608E-001
   1.80000000E+002   9.81838665E-001   6.51688824E-001   9.81837773E-001
   1.85000000E+002   9.83600721E-001   6.51690037E-001   9.83599946E-001
   1.90000000E+002   9.85233327E-001   6.51691069E-001   9.85232651E-001
   1.95000000E+002   9.86736736E-001   6.51691950E-001   9.86736143E-001
   2.00000000E+002   9.88086496E-001   6.51692705E-001   9.88085975E-001
   2.05000000E+002   9.89343129E-001   6.51693356E-001   9.89342669E-001
   2.10000000E+002   9.90502402E-001   6.51693917E-001   9.90501995E-001
   2.15000000E+002   9.91508585E-001   6.51694404E-001   9.91508223E-001
   2.20000000E+002   9.92461705E-001   6.51694827E-001   9.92461383E-001
   2.25000000E+002   9.93347024E-001   6.51695197E-001   9.93346737E-001
   2.30000000E+002   9.94132692E-001   6.51695520E-001   9.94132434E-001
   2.35000000E+002   9.94850373E-001   6.51695804E-001   9.94850142E-001
   2.40000000E+002   9.95496949E-001   6.51696054E-001   9.95496740E-001
   2.45000000E+002   9.96106625E-001   6.51696274E-001   9.96106437E-001
