# ./jetvheto -in n3lo-fixed-order/H125-LHC13-R04-heft-xmur025-xmuf050-log.fxd -xQ 0.50 -out benchmarks-n3lo-smallR/H125-LHC13-R04-heft-xmur025-xmuf050-xQ050-N3LO+NNLLb.R0-2.0.res -scheme b -order 2 -ptmax 500.01 -fixed_order 3 -small-r -R0 2.0
# process = H    
# collider = pp   
# rts =  13000.000
# M   =    125.000
# muR =     31.250
# muF =     62.500
# Q   =     62.500
# p   =      5.000
# include_c1_squared =   F
# loop_mass  = none
# alphas(MZ) =    0.11800
# alphas(M) =    0.11264
# alphas(muR) =    0.14091
# Rjet =      0.400
# order = NNLL
# pdf name and set = PDF4LHC15_nnlo_mc.LHgrid,    0
# matching scheme = b
# total cross sections [nb] at LO, NLOdiff, NNLOdiff, N3LOdiff =     0.019087    0.023444    0.005009   -0.002663
#----------------------------------------------------------------------
# the lines that follow give the jet-veto efficiencies as a function of pt
#         pt            matched eff      resummed eff     fixed-order eff
   2.00000000E+001   5.07527285E-001   5.25366331E-001   4.83550645E-001
   2.50000000E+001   5.83510174E-001   5.86031677E-001   5.61663798E-001
   3.00000000E+001   6.50980252E-001   6.27710824E-001   6.33146331E-001
   3.50000000E+001   7.03785548E-001   6.55909804E-001   6.89320244E-001
   4.00000000E+001   7.42974037E-001   6.74495985E-001   7.31304139E-001
   4.50000000E+001   7.78799253E-001   6.86270555E-001   7.69670236E-001
   5.00000000E+001   8.06389012E-001   6.93348848E-001   7.99316506E-001
   5.50000000E+001   8.31111572E-001   6.97338310E-001   8.25709641E-001
   6.00000000E+001   8.50744641E-001   6.99418488E-001   8.46646269E-001
   6.50000000E+001   8.70182562E-001   7.00396899E-001   8.67078465E-001
   7.00000000E+001   8.83829979E-001   7.00785521E-001   8.81478648E-001
   7.50000000E+001   8.96514831E-001   7.00883313E-001   8.94727956E-001
   8.00000000E+001   9.08307139E-001   7.00851879E-001   9.06939030E-001
   8.50000000E+001   9.18883408E-001   7.00772418E-001   9.17827771E-001
   9.00000000E+001   9.28282824E-001   7.00682950E-001   9.27461369E-001
   9.50000000E+001   9.35245346E-001   7.00599438E-001   9.34602235E-001
   1.00000000E+002   9.42234300E-001   7.00527314E-001   9.41725608E-001
   1.05000000E+002   9.47352200E-001   7.00467337E-001   9.46947268E-001
   1.10000000E+002   9.52217382E-001   7.00418402E-001   9.51892145E-001
   1.15000000E+002   9.57037665E-001   7.00378838E-001   9.56774222E-001
   1.20000000E+002   9.61402233E-001   7.00346954E-001   9.61187239E-001
   1.25000000E+002   9.64718573E-001   7.00321258E-001   9.64541996E-001
   1.30000000E+002   9.67561820E-001   7.00300503E-001   9.67415911E-001
   1.35000000E+002   9.70688131E-001   7.00283681E-001   9.70566662E-001
   1.40000000E+002   9.73523523E-001   7.00269988E-001   9.73421804E-001
   1.45000000E+002   9.75862587E-001   7.00258792E-001   9.75776965E-001
   1.50000000E+002   9.77379840E-001   7.00249592E-001   9.77307429E-001
   1.55000000E+002   9.79622917E-001   7.00241996E-001   9.79561296E-001
   1.60000000E+002   9.81632540E-001   7.00235693E-001   9.81579860E-001
   1.65000000E+002   9.82369496E-001   7.00230437E-001   9.82324329E-001
   1.70000000E+002   9.83909464E-001   7.00226034E-001   9.83870516E-001
   1.75000000E+002   9.85374141E-001   7.00222329E-001   9.85340414E-001
   1.80000000E+002   9.86333646E-001   7.00219197E-001   9.86304351E-001
   1.85000000E+002   9.87202952E-001   7.00216539E-001   9.87177411E-001
   1.90000000E+002   9.88220970E-001   7.00214273E-001   9.88198614E-001
   1.95000000E+002   9.89173672E-001   7.00212334E-001   9.89154041E-001
   2.00000000E+002   9.89998378E-001   7.00210669E-001   9.89981086E-001
   2.05000000E+002   9.90564808E-001   7.00209234E-001   9.90549533E-001
   2.10000000E+002   9.91225709E-001   7.00207993E-001   9.91212177E-001
   2.15000000E+002   9.91626404E-001   7.00206915E-001   9.91614383E-001
   2.20000000E+002   9.92511404E-001   7.00205978E-001   9.92500689E-001
   2.25000000E+002   9.92785185E-001   7.00205159E-001   9.92775620E-001
   2.30000000E+002   9.93235081E-001   7.00204441E-001   9.93226516E-001
   2.35000000E+002   9.93520952E-001   7.00203812E-001   9.93513267E-001
   2.40000000E+002   9.93888160E-001   7.00203257E-001   9.93881249E-001
   2.45000000E+002   9.94416071E-001   7.00202767E-001   9.94409841E-001
