# ./jetvheto -in n3lo-fixed-order/H125-LHC13-R04-mb-475-mt-1725-xmur050-xmuf050-log.fxd -xQ 0.333 -out benchmarks-n3lo-smallR/H125-LHC13-R04-mb-475-mt-1725-xmur050-xmuf050-xQ033-NNLO+NNLLb.R0-0.5.res -scheme b -order 2 -ptmax 500.01 -fixed_order 2 -small-r -loop-mass t+b -R0 0.5
# process = H    
# collider = pp   
# rts =  13000.000
# M   =    125.000
# muR =     62.500
# muF =     62.500
# Q   =     41.625
# p   =      5.000
# include_c1_squared =   F
# loop_mass  = t+b 
# alphas(MZ) =    0.11800
# alphas(M) =    0.11264
# alphas(muR) =    0.12516
# Rjet =      0.400
# order = NNLL
# pdf name and set = PDF4LHC15_nnlo_mc.LHgrid,    0
# matching scheme = b
# total cross sections [nb] at LO, NLOdiff, NNLOdiff, N3LOdiff =     0.014147    0.020254    0.008998    0.001413
#----------------------------------------------------------------------
# the lines that follow give the jet-veto efficiencies as a function of pt
#         pt            matched eff      resummed eff     fixed-order eff
   2.00000000E+001   3.77281775E-001   4.64653363E-001   3.08135668E-001
   2.50000000E+001   4.60281360E-001   5.37922007E-001   4.16958718E-001
   3.00000000E+001   5.29596676E-001   5.87602166E-001   5.02459671E-001
   3.50000000E+001   5.88111902E-001   6.19851985E-001   5.71196452E-001
   4.00000000E+001   6.37874326E-001   6.39910349E-001   6.27360842E-001
   4.50000000E+001   6.80866937E-001   6.52015644E-001   6.74295094E-001
   5.00000000E+001   7.17981316E-001   6.59243144E-001   7.13816378E-001
   5.50000000E+001   7.50001615E-001   6.63588720E-001   7.47307378E-001
   6.00000000E+001   7.77796974E-001   6.66250248E-001   7.76012324E-001
   6.50000000E+001   8.01962659E-001   6.67920193E-001   8.00751743E-001
   7.00000000E+001   8.23182970E-001   6.68995329E-001   8.22342000E-001
   7.50000000E+001   8.41621652E-001   6.69705260E-001   8.41024239E-001
   8.00000000E+001   8.57914784E-001   6.70185359E-001   8.57481768E-001
   8.50000000E+001   8.72347962E-001   6.70517264E-001   8.72028209E-001
   9.00000000E+001   8.85028527E-001   6.70751389E-001   8.84788465E-001
   9.50000000E+001   8.96213178E-001   6.70919602E-001   8.96030076E-001
   1.00000000E+002   9.06229669E-001   6.71042494E-001   9.06088095E-001
   1.05000000E+002   9.15133775E-001   6.71133654E-001   9.15022873E-001
   1.10000000E+002   9.23055429E-001   6.71202220E-001   9.22967578E-001
   1.15000000E+002   9.30193863E-001   6.71254454E-001   9.30123525E-001
   1.20000000E+002   9.36582050E-001   6.71294712E-001   9.36525194E-001
   1.25000000E+002   9.42388343E-001   6.71326075E-001   9.42341979E-001
   1.30000000E+002   9.47550803E-001   6.71350751E-001   9.47512677E-001
   1.35000000E+002   9.52224288E-001   6.71370345E-001   9.52192707E-001
   1.40000000E+002   9.56479864E-001   6.71386036E-001   9.56453519E-001
   1.45000000E+002   9.60313377E-001   6.71398701E-001   9.60291255E-001
   1.50000000E+002   9.63824649E-001   6.71408999E-001   9.63805964E-001
   1.55000000E+002   9.67002688E-001   6.71417431E-001   9.66986816E-001
   1.60000000E+002   9.69885930E-001   6.71424379E-001   9.69872376E-001
   1.65000000E+002   9.72491550E-001   6.71430139E-001   9.72479918E-001
   1.70000000E+002   9.74866951E-001   6.71434941E-001   9.74856924E-001
   1.75000000E+002   9.77066871E-001   6.71438967E-001   9.77058190E-001
   1.80000000E+002   9.79033657E-001   6.71442358E-001   9.79026110E-001
   1.85000000E+002   9.80861605E-001   6.71445228E-001   9.80855018E-001
   1.90000000E+002   9.82526852E-001   6.71447669E-001   9.82521082E-001
   1.95000000E+002   9.84042836E-001   6.71449753E-001   9.84037765E-001
   2.00000000E+002   9.85425188E-001   6.71451539E-001   9.85420716E-001
   2.05000000E+002   9.86701176E-001   6.71453077E-001   9.86697220E-001
   2.10000000E+002   9.87840332E-001   6.71454406E-001   9.87836822E-001
   2.15000000E+002   9.88922669E-001   6.71455557E-001   9.88919546E-001
   2.20000000E+002   9.89915861E-001   6.71456559E-001   9.89913075E-001
   2.25000000E+002   9.90789148E-001   6.71457433E-001   9.90786656E-001
   2.30000000E+002   9.91642593E-001   6.71458197E-001   9.91640359E-001
   2.35000000E+002   9.92386755E-001   6.71458869E-001   9.92384747E-001
   2.40000000E+002   9.93084377E-001   6.71459459E-001   9.93082569E-001
   2.45000000E+002   9.93713503E-001   6.71459981E-001   9.93711871E-001
