# ./jetvheto -in n3lo-fixed-order/H125-LHC13-R04-mb-0-mt-1725-xmur025-xmuf050-log.fxd -xQ 0.5 -out benchmarks-n3lo-smallR/H125-LHC13-R04-mb-0-mt-1725-xmur025-xmuf050-xQ050-NNLO+NNLLb.R0-1.5.res -scheme b -order 2 -ptmax 500.01 -small-r -fixed_order 2 -loop-mass t -R0 1.5
# process = H    
# collider = pp   
# rts =  13000.000
# M   =    125.000
# muR =     31.250
# muF =     62.500
# Q   =     62.500
# p   =      5.000
# include_c1_squared =   F
# loop_mass  = t   
# alphas(MZ) =    0.11800
# alphas(M) =    0.11264
# alphas(muR) =    0.14091
# Rjet =      0.400
# order = NNLL
# pdf name and set = PDF4LHC15_nnlo_mc.LHgrid,    0
# matching scheme = b
# total cross sections [nb] at LO, NLOdiff, NNLOdiff, N3LOdiff =     0.019855    0.024744    0.005009   -0.002663
#----------------------------------------------------------------------
# the lines that follow give the jet-veto efficiencies as a function of pt
#         pt            matched eff      resummed eff     fixed-order eff
   2.00000000E+001   4.76984105E-001   5.11331647E-001   3.69272721E-001
   2.50000000E+001   5.54330254E-001   5.75368836E-001   4.69726360E-001
   3.00000000E+001   6.15871750E-001   6.19383576E-001   5.49511805E-001
   3.50000000E+001   6.65786106E-001   6.49217170E-001   6.13864488E-001
   4.00000000E+001   7.06892720E-001   6.68955486E-001   6.66517199E-001
   4.50000000E+001   7.41325080E-001   6.81543978E-001   7.10176284E-001
   5.00000000E+001   7.70912382E-001   6.89196131E-001   7.47057362E-001
   5.50000000E+001   7.96071624E-001   6.93588472E-001   7.77941942E-001
   6.00000000E+001   8.18105577E-001   6.95950321E-001   8.04372457E-001
   6.50000000E+001   8.37529871E-001   6.97125291E-001   8.27134891E-001
   7.00000000E+001   8.54737050E-001   6.97651280E-001   8.46853484E-001
   7.50000000E+001   8.69818537E-001   6.97845549E-001   8.63811915E-001
   8.00000000E+001   8.83295246E-001   6.97882413E-001   8.78688651E-001
   8.50000000E+001   8.95317613E-001   6.97851788E-001   8.91757209E-001
   9.00000000E+001   9.06026952E-001   6.97797637E-001   9.03252169E-001
   9.50000000E+001   9.15440218E-001   6.97739971E-001   9.13259014E-001
   1.00000000E+002   9.23959332E-001   6.97686992E-001   9.22229539E-001
   1.05000000E+002   9.31420044E-001   6.97641364E-001   9.30036845E-001
   1.10000000E+002   9.38129128E-001   6.97603307E-001   9.37014025E-001
   1.15000000E+002   9.44144430E-001   6.97572079E-001   9.43238345E-001
   1.20000000E+002   9.49559422E-001   6.97546651E-001   9.48817676E-001
   1.25000000E+002   9.54476567E-001   6.97526002E-001   9.53865028E-001
   1.30000000E+002   9.58797391E-001   6.97509230E-001   9.58289911E-001
   1.35000000E+002   9.62714951E-001   6.97495577E-001   9.62291205E-001
   1.40000000E+002   9.66270932E-001   6.97484428E-001   9.65914981E-001
   1.45000000E+002   9.69478210E-001   6.97475287E-001   9.69177523E-001
   1.50000000E+002   9.72418674E-001   6.97467761E-001   9.72163335E-001
   1.55000000E+002   9.75049190E-001   6.97461536E-001   9.74831295E-001
   1.60000000E+002   9.77432049E-001   6.97456363E-001   9.77245237E-001
   1.65000000E+002   9.79569956E-001   6.97452046E-001   9.79409086E-001
   1.70000000E+002   9.81538131E-001   6.97448426E-001   9.81399018E-001
   1.75000000E+002   9.83327404E-001   6.97445377E-001   9.83206634E-001
   1.80000000E+002   9.84916075E-001   6.97442798E-001   9.84810833E-001
   1.85000000E+002   9.86385331E-001   6.97440608E-001   9.86293290E-001
   1.90000000E+002   9.87728054E-001   6.97438741E-001   9.87647285E-001
   1.95000000E+002   9.88939614E-001   6.97437142E-001   9.88868507E-001
   2.00000000E+002   9.90042869E-001   6.97435769E-001   9.89980075E-001
   2.05000000E+002   9.91055864E-001   6.97434585E-001   9.91000249E-001
   2.10000000E+002   9.91948643E-001   6.97433561E-001   9.91899248E-001
   2.15000000E+002   9.92799408E-001   6.97432671E-001   9.92755418E-001
   2.20000000E+002   9.93573466E-001   6.97431897E-001   9.93534190E-001
   2.25000000E+002   9.94241449E-001   6.97431221E-001   9.94206295E-001
   2.30000000E+002   9.94920555E-001   6.97430629E-001   9.94889017E-001
   2.35000000E+002   9.95486404E-001   6.97430109E-001   9.95458046E-001
   2.40000000E+002   9.96020808E-001   6.97429650E-001   9.95995254E-001
   2.45000000E+002   9.96508715E-001   6.97429246E-001   9.96485640E-001
