# ./jetvheto -in n3lo-fixed-order/H125-LHC13-R04-heft-xmur050-xmuf100-log.fxd -xQ 0.50 -out benchmarks-n3lo-smallR/H125-LHC13-R04-heft-xmur050-xmuf100-xQ050-NNLO+NNLLa.R0-1.0.res -scheme a -order 2 -ptmax 500.01 -fixed_order 2 -small-r -R0 1.0
# process = H    
# collider = pp   
# rts =  13000.000
# M   =    125.000
# muR =     62.500
# muF =    125.000
# Q   =     62.500
# p   =      5.000
# include_c1_squared =   F
# loop_mass  = none
# alphas(MZ) =    0.11800
# alphas(M) =    0.11264
# alphas(muR) =    0.12516
# Rjet =      0.400
# order = NNLL
# pdf name and set = PDF4LHC15_nnlo_mc.LHgrid,    0
# matching scheme = a
# total cross sections [nb] at LO, NLOdiff, NNLOdiff, N3LOdiff =     0.015984    0.019551    0.008553    0.000949
#----------------------------------------------------------------------
# the lines that follow give the jet-veto efficiencies as a function of pt
#         pt            matched eff      resummed eff     fixed-order eff
   2.00000000E+001   4.83559312E-001   5.11731613E-001   4.60557289E-001
   2.50000000E+001   5.68779654E-001   5.87715473E-001   5.47967086E-001
   3.00000000E+001   6.35427950E-001   6.40796889E-001   6.15938775E-001
   3.50000000E+001   6.88037531E-001   6.77408643E-001   6.69985244E-001
   4.00000000E+001   7.30273173E-001   7.02142504E-001   7.14028235E-001
   4.50000000E+001   7.64430656E-001   7.18371135E-001   7.50288563E-001
   5.00000000E+001   7.92546318E-001   7.28640299E-001   7.80624385E-001
   5.50000000E+001   8.15957016E-001   7.34884249E-001   8.06187879E-001
   6.00000000E+001   8.35909153E-001   7.38537919E-001   8.28085391E-001
   6.50000000E+001   8.53098735E-001   7.40608389E-001   8.46931857E-001
   7.00000000E+001   8.67960135E-001   7.41754810E-001   8.63146333E-001
   7.50000000E+001   8.81024488E-001   7.42380983E-001   8.77281906E-001
   8.00000000E+001   8.92559277E-001   7.42721186E-001   8.89649059E-001
   8.50000000E+001   9.02695726E-001   7.42906073E-001   9.00425349E-001
   9.00000000E+001   9.11796642E-001   7.43006926E-001   9.10015994E-001
   9.50000000E+001   9.19836796E-001   7.43062190E-001   9.18431200E-001
   1.00000000E+002   9.27015206E-001   7.43092559E-001   9.25897663E-001
   1.05000000E+002   9.33444992E-001   7.43109227E-001   9.32549831E-001
   1.10000000E+002   9.39164735E-001   7.43118294E-001   9.38442346E-001
   1.15000000E+002   9.44348526E-001   7.43123118E-001   9.43761259E-001
   1.20000000E+002   9.48979830E-001   7.43125569E-001   9.48499013E-001
   1.25000000E+002   9.53170258E-001   7.43126694E-001   9.52773925E-001
   1.30000000E+002   9.56942916E-001   7.43127088E-001   9.56614098E-001
   1.35000000E+002   9.60384845E-001   7.43127088E-001   9.60110351E-001
   1.40000000E+002   9.63442924E-001   7.43126885E-001   9.63212443E-001
   1.45000000E+002   9.66295140E-001   7.43126589E-001   9.66100537E-001
   1.50000000E+002   9.68814631E-001   7.43126261E-001   9.68649466E-001
   1.55000000E+002   9.71131031E-001   7.43125933E-001   9.70990153E-001
   1.60000000E+002   9.73266278E-001   7.43125623E-001   9.73145550E-001
   1.65000000E+002   9.75192442E-001   7.43125338E-001   9.75088523E-001
   1.70000000E+002   9.76980377E-001   7.43125081E-001   9.76890548E-001
   1.75000000E+002   9.78586069E-001   7.43124852E-001   9.78508110E-001
   1.80000000E+002   9.80081586E-001   7.43124650E-001   9.80013672E-001
   1.85000000E+002   9.81434659E-001   7.43124472E-001   9.81375283E-001
   1.90000000E+002   9.82687453E-001   7.43124316E-001   9.82635363E-001
   1.95000000E+002   9.83865494E-001   7.43124179E-001   9.83819647E-001
   2.00000000E+002   9.84934566E-001   7.43124058E-001   9.84894086E-001
   2.05000000E+002   9.85930788E-001   7.43123953E-001   9.85894943E-001
   2.10000000E+002   9.86839257E-001   7.43123860E-001   9.86807426E-001
   2.15000000E+002   9.87663704E-001   7.43123779E-001   9.87635361E-001
   2.20000000E+002   9.88445002E-001   7.43123708E-001   9.88419700E-001
   2.25000000E+002   9.89162647E-001   7.43123645E-001   9.89140003E-001
   2.30000000E+002   9.89830943E-001   7.43123589E-001   9.89810630E-001
   2.35000000E+002   9.90469040E-001   7.43123540E-001   9.90450776E-001
   2.40000000E+002   9.91039823E-001   7.43123496E-001   9.91023366E-001
   2.45000000E+002   9.91581540E-001   7.43123457E-001   9.91566680E-001
