# ./jetvheto -in n3lo-fixed-order/H125-LHC13-R04-mb-0-mt-1725-xmur100-xmuf050-log.fxd -xQ 0.25 -out benchmarks-n3lo-smallR/H125-LHC13-R04-mb-0-mt-1725-xmur100-xmuf050-xQ025-NNLO+NNLLa.R0-1.0.res -scheme a -order 2 -ptmax 500.01 -small-r -fixed_order 2 -loop-mass t -R0 1.0
# process = H    
# collider = pp   
# rts =  13000.000
# M   =    125.000
# muR =    125.000
# muF =     62.500
# Q   =     31.250
# p   =      5.000
# include_c1_squared =   F
# loop_mass  = t   
# alphas(MZ) =    0.11800
# alphas(M) =    0.11264
# alphas(muR) =    0.11264
# Rjet =      0.400
# order = NNLL
# pdf name and set = PDF4LHC15_nnlo_mc.LHgrid,    0
# matching scheme = a
# total cross sections [nb] at LO, NLOdiff, NNLOdiff, N3LOdiff =     0.012997    0.017347    0.010424    0.004163
#----------------------------------------------------------------------
# the lines that follow give the jet-veto efficiencies as a function of pt
#         pt            matched eff      resummed eff     fixed-order eff
   2.00000000E+001   4.86280261E-001   5.32624874E-001   5.05383673E-001
   2.50000000E+001   5.73853956E-001   6.07267464E-001   5.86599989E-001
   3.00000000E+001   6.41141818E-001   6.51490440E-001   6.49001744E-001
   3.50000000E+001   6.93787226E-001   6.75683030E-001   6.98540679E-001
   4.00000000E+001   7.35747231E-001   6.88432641E-001   7.38658449E-001
   4.50000000E+001   7.69890883E-001   6.95183104E-001   7.71720875E-001
   5.00000000E+001   7.98424387E-001   6.98864062E-001   7.99609682E-001
   5.50000000E+001   8.22073159E-001   7.00950948E-001   8.22862779E-001
   6.00000000E+001   8.42300568E-001   7.02182491E-001   8.42840818E-001
   6.50000000E+001   8.59703637E-001   7.02937199E-001   8.60082325E-001
   7.00000000E+001   8.74739043E-001   7.03415776E-001   8.75010333E-001
   7.50000000E+001   8.87749890E-001   7.03728658E-001   8.87947964E-001
   8.00000000E+001   8.99176100E-001   7.03938840E-001   8.99323286E-001
   8.50000000E+001   9.09253743E-001   7.04083481E-001   9.09364851E-001
   9.00000000E+001   9.18139673E-001   7.04185185E-001   9.18224745E-001
   9.50000000E+001   9.25950692E-001   7.04258090E-001   9.26016654E-001
   1.00000000E+002   9.32978764E-001   7.04311266E-001   9.33030521E-001
   1.05000000E+002   9.39145497E-001   7.04350662E-001   9.39186536E-001
   1.10000000E+002   9.44666180E-001   7.04380268E-001   9.44699045E-001
   1.15000000E+002   9.49635887E-001   7.04402806E-001   9.49662445E-001
   1.20000000E+002   9.54116859E-001   7.04420168E-001   9.54138501E-001
   1.25000000E+002   9.58195023E-001   7.04433688E-001   9.58212797E-001
   1.30000000E+002   9.61810359E-001   7.04444322E-001   9.61825060E-001
   1.35000000E+002   9.65074659E-001   7.04452764E-001   9.65086900E-001
   1.40000000E+002   9.68062622E-001   7.04459523E-001   9.68072879E-001
   1.45000000E+002   9.70791248E-001   7.04464977E-001   9.70799893E-001
   1.50000000E+002   9.73289665E-001   7.04469412E-001   9.73296991E-001
   1.55000000E+002   9.75541621E-001   7.04473043E-001   9.75547861E-001
   1.60000000E+002   9.77593675E-001   7.04476034E-001   9.77599016E-001
   1.65000000E+002   9.79455184E-001   7.04478514E-001   9.79459776E-001
   1.70000000E+002   9.81167720E-001   7.04480581E-001   9.81171685E-001
   1.75000000E+002   9.82720857E-001   7.04482314E-001   9.82724296E-001
   1.80000000E+002   9.84130497E-001   7.04483774E-001   9.84133490E-001
   1.85000000E+002   9.85437855E-001   7.04485009E-001   9.85440470E-001
   1.90000000E+002   9.86633486E-001   7.04486060E-001   9.86635778E-001
   1.95000000E+002   9.87730112E-001   7.04486957E-001   9.87732128E-001
   2.00000000E+002   9.88736417E-001   7.04487726E-001   9.88738196E-001
   2.05000000E+002   9.89657957E-001   7.04488387E-001   9.89659531E-001
   2.10000000E+002   9.90489903E-001   7.04488959E-001   9.90491300E-001
   2.15000000E+002   9.91274940E-001   7.04489455E-001   9.91276183E-001
   2.20000000E+002   9.91993723E-001   7.04489886E-001   9.91994832E-001
   2.25000000E+002   9.92640623E-001   7.04490262E-001   9.92641615E-001
   2.30000000E+002   9.93266189E-001   7.04490591E-001   9.93267078E-001
   2.35000000E+002   9.93812270E-001   7.04490880E-001   9.93813070E-001
   2.40000000E+002   9.94329090E-001   7.04491134E-001   9.94329809E-001
   2.45000000E+002   9.94802141E-001   7.04491358E-001   9.94802790E-001
