# ./jetvheto -in n3lo-fixed-order/H125-LHC13-R04-mb-0-mt-1725-xmur050-xmuf050-log.fxd -xQ 0.125 -out benchmarks-n3lo-smallR/H125-LHC13-R04-mb-0-mt-1725-xmur050-xmuf050-xQ125-NNLO+NNLLa.R0-0.5.res -scheme a -order 2 -ptmax 500.01 -small-r -fixed_order 2 -loop-mass t -R0 0.5
# process = H    
# collider = pp   
# rts =  13000.000
# M   =    125.000
# muR =     62.500
# muF =     62.500
# Q   =     15.625
# p   =      5.000
# include_c1_squared =   F
# loop_mass  = t   
# alphas(MZ) =    0.11800
# alphas(M) =    0.11264
# alphas(muR) =    0.12516
# Rjet =      0.400
# order = NNLL
# pdf name and set = PDF4LHC15_nnlo_mc.LHgrid,    0
# matching scheme = a
# total cross sections [nb] at LO, NLOdiff, NNLOdiff, N3LOdiff =     0.015885    0.020561    0.008998    0.001413
#----------------------------------------------------------------------
# the lines that follow give the jet-veto efficiencies as a function of pt
#         pt            matched eff      resummed eff     fixed-order eff
   2.00000000E+001   4.68168916E-001   4.41445990E-001   4.69057413E-001
   2.50000000E+001   5.54510894E-001   4.56016451E-001   5.55288671E-001
   3.00000000E+001   6.21847803E-001   4.60764456E-001   6.22338019E-001
   3.50000000E+001   6.75579644E-001   4.62543619E-001   6.75875821E-001
   4.00000000E+001   7.19214638E-001   4.63300629E-001   7.19396295E-001
   4.50000000E+001   7.55229605E-001   4.63657660E-001   7.55344248E-001
   5.00000000E+001   7.85608855E-001   4.63840515E-001   7.85683467E-001
   5.50000000E+001   8.10970590E-001   4.63940626E-001   8.11020538E-001
   6.00000000E+001   8.32722927E-001   4.63998525E-001   8.32757246E-001
   6.50000000E+001   8.51477819E-001   4.64033579E-001   8.51501964E-001
   7.00000000E+001   8.67717321E-001   4.64055642E-001   8.67734675E-001
   7.50000000E+001   8.81750350E-001   4.64069996E-001   8.81763053E-001
   8.00000000E+001   8.94077617E-001   4.64079607E-001   8.94087077E-001
   8.50000000E+001   9.04939458E-001   4.64086208E-001   9.04946611E-001
   9.00000000E+001   9.14511832E-001   4.64090842E-001   9.14517318E-001
   9.50000000E+001   9.22898816E-001   4.64094160E-001   9.22903074E-001
   1.00000000E+002   9.30436821E-001   4.64096578E-001   9.30440166E-001
   1.05000000E+002   9.37032597E-001   4.64098369E-001   9.37035250E-001
   1.10000000E+002   9.42934531E-001   4.64099714E-001   9.42936658E-001
   1.15000000E+002   9.48230842E-001   4.64100738E-001   9.48232561E-001
   1.20000000E+002   9.52996742E-001   4.64101526E-001   9.52998144E-001
   1.25000000E+002   9.57325309E-001   4.64102140E-001   9.57326460E-001
   1.30000000E+002   9.61147697E-001   4.64102623E-001   9.61148649E-001
   1.35000000E+002   9.64600987E-001   4.64103006E-001   9.64601780E-001
   1.40000000E+002   9.67750267E-001   4.64103312E-001   9.67750932E-001
   1.45000000E+002   9.70612077E-001   4.64103560E-001   9.70612637E-001
   1.50000000E+002   9.73232087E-001   4.64103761E-001   9.73232562E-001
   1.55000000E+002   9.75586592E-001   4.64103926E-001   9.75586996E-001
   1.60000000E+002   9.77726901E-001   4.64104062E-001   9.77727247E-001
   1.65000000E+002   9.79660593E-001   4.64104174E-001   9.79660891E-001
   1.70000000E+002   9.81439346E-001   4.64104268E-001   9.81439603E-001
   1.75000000E+002   9.83053448E-001   4.64104347E-001   9.83053670E-001
   1.80000000E+002   9.84507328E-001   4.64104413E-001   9.84507522E-001
   1.85000000E+002   9.85854108E-001   4.64104469E-001   9.85854277E-001
   1.90000000E+002   9.87085265E-001   4.64104517E-001   9.87085413E-001
   1.95000000E+002   9.88208184E-001   4.64104557E-001   9.88208314E-001
   2.00000000E+002   9.89235858E-001   4.64104592E-001   9.89235973E-001
   2.05000000E+002   9.90177657E-001   4.64104622E-001   9.90177759E-001
   2.10000000E+002   9.91021186E-001   4.64104648E-001   9.91021276E-001
   2.15000000E+002   9.91819560E-001   4.64104671E-001   9.91819641E-001
   2.20000000E+002   9.92548990E-001   4.64104690E-001   9.92549062E-001
   2.25000000E+002   9.93196689E-001   4.64104707E-001   9.93196753E-001
   2.30000000E+002   9.93833039E-001   4.64104722E-001   9.93833097E-001
   2.35000000E+002   9.94380310E-001   4.64104735E-001   9.94380362E-001
   2.40000000E+002   9.94897853E-001   4.64104747E-001   9.94897900E-001
   2.45000000E+002   9.95371164E-001   4.64104757E-001   9.95371206E-001
