# ./jetvheto -in n3lo-fixed-order/H125-LHC13-R04-mb-0-mt-1725-xmur050-xmuf025-log.fxd -xQ 0.5 -out benchmarks-n3lo-smallR/H125-LHC13-R04-mb-0-mt-1725-xmur050-xmuf025-xQ050-N3LO+NNLLb.res -scheme b -order 2 -ptmax 500.01 -fixed_order 3 -loop-mass t
# process = H    
# collider = pp   
# rts =  13000.000
# M   =    125.000
# muR =     62.500
# muF =     31.250
# Q   =     62.500
# p   =      5.000
# include_c1_squared =   F
# loop_mass  = t   
# alphas(MZ) =    0.11800
# alphas(M) =    0.11264
# alphas(muR) =    0.12516
# Rjet =      0.400
# order = NNLL
# pdf name and set = PDF4LHC15_nnlo_mc.LHgrid,    0
# matching scheme = b
# total cross sections [nb] at LO, NLOdiff, NNLOdiff, N3LOdiff =     0.014513    0.020714    0.009723    0.001827
#----------------------------------------------------------------------
# the lines that follow give the jet-veto efficiencies as a function of pt
#         pt            matched eff      resummed eff     fixed-order eff
   2.00000000E+001   4.43443890E-001   4.80658539E-001   4.32654271E-001
   2.50000000E+001   5.34587063E-001   5.62945260E-001   5.25438435E-001
   3.00000000E+001   6.06567802E-001   6.21983791E-001   5.98274849E-001
   3.50000000E+001   6.64158550E-001   6.63795004E-001   6.56673365E-001
   4.00000000E+001   7.11382590E-001   6.92925288E-001   7.04872664E-001
   4.50000000E+001   7.50697768E-001   7.12757916E-001   7.45219237E-001
   5.00000000E+001   7.83328334E-001   7.25893538E-001   7.78821557E-001
   5.50000000E+001   8.11607369E-001   7.34360469E-001   8.08005902E-001
   6.00000000E+001   8.34969444E-001   7.39698901E-001   8.32119932E-001
   6.50000000E+001   8.53783042E-001   7.43021633E-001   8.51541323E-001
   7.00000000E+001   8.71349209E-001   7.45086447E-001   8.69611350E-001
   7.50000000E+001   8.86357316E-001   7.46381421E-001   8.85012693E-001
   8.00000000E+001   8.98910165E-001   7.47208117E-001   8.97864534E-001
   8.50000000E+001   9.10401428E-001   7.47748012E-001   9.09587011E-001
   9.00000000E+001   9.20520507E-001   7.48109511E-001   9.19882297E-001
   9.50000000E+001   9.28099305E-001   7.48357692E-001   9.27593920E-001
   1.00000000E+002   9.36380022E-001   7.48532172E-001   9.35978860E-001
   1.05000000E+002   9.42779447E-001   7.48657545E-001   9.42457594E-001
   1.10000000E+002   9.49258415E-001   7.48749424E-001   9.48998949E-001
   1.15000000E+002   9.54855776E-001   7.48817953E-001   9.54644871E-001
   1.20000000E+002   9.59301477E-001   7.48869876E-001   9.59128590E-001
   1.25000000E+002   9.63128486E-001   7.48909771E-001   9.62985835E-001
   1.30000000E+002   9.67061820E-001   7.48940811E-001   9.66943495E-001
   1.35000000E+002   9.70316633E-001   7.48965235E-001   9.70217812E-001
   1.40000000E+002   9.73389660E-001   7.48984650E-001   9.73306693E-001
   1.45000000E+002   9.76207516E-001   7.49000226E-001   9.76137473E-001
   1.50000000E+002   9.78607005E-001   7.49012829E-001   9.78547560E-001
   1.55000000E+002   9.80808436E-001   7.49023105E-001   9.80757743E-001
   1.60000000E+002   9.83114390E-001   7.49031544E-001   9.83070991E-001
   1.65000000E+002   9.84821362E-001   7.49038520E-001   9.84784004E-001
   1.70000000E+002   9.86231130E-001   7.49044323E-001   9.86198834E-001
   1.75000000E+002   9.87922699E-001   7.49049177E-001   9.87894697E-001
   1.80000000E+002   9.89077209E-001   7.49053259E-001   9.89052814E-001
   1.85000000E+002   9.90395273E-001   7.49056710E-001   9.90373963E-001
   1.90000000E+002   9.91436292E-001   7.49059640E-001   9.91417603E-001
   1.95000000E+002   9.92552074E-001   7.49062140E-001   9.92535637E-001
   2.00000000E+002   9.93338016E-001   7.49064281E-001   9.93323508E-001
   2.05000000E+002   9.94115331E-001   7.49066122E-001   9.94102489E-001
   2.10000000E+002   9.94824133E-001   7.49067712E-001   9.94812733E-001
   2.15000000E+002   9.95603609E-001   7.49069089E-001   9.95593468E-001
   2.20000000E+002   9.96146684E-001   7.49070287E-001   9.96137634E-001
   2.25000000E+002   9.96793333E-001   7.49071331E-001   9.96785239E-001
   2.30000000E+002   9.97249595E-001   7.49072244E-001   9.97242338E-001
   2.35000000E+002   9.97572124E-001   7.49073046E-001   9.97565601E-001
   2.40000000E+002   9.98047460E-001   7.49073751E-001   9.98041587E-001
   2.45000000E+002   9.98447871E-001   7.49074373E-001   9.98442572E-001
