# ./jetvheto -in n3lo-fixed-order/H125-LHC13-R04-heft-xmur100-xmuf100-log.fxd -xQ 0.25 -out benchmarks-n3lo-smallR/H125-LHC13-R04-heft-xmur100-xmuf100-xQ025-N3LO+NNLLa.res -scheme a -order 2 -ptmax 500.01 -fixed_order 3
# process = H    
# collider = pp   
# rts =  13000.000
# M   =    125.000
# muR =    125.000
# muF =    125.000
# Q   =     31.250
# p   =      5.000
# include_c1_squared =   F
# loop_mass  = none
# alphas(MZ) =    0.11800
# alphas(M) =    0.11264
# alphas(muR) =    0.11264
# Rjet =      0.400
# order = NNLL
# pdf name and set = PDF4LHC15_nnlo_mc.LHgrid,    0
# matching scheme = a
# total cross sections [nb] at LO, NLOdiff, NNLOdiff, N3LOdiff =     0.012945    0.016716    0.010146    0.003834
#----------------------------------------------------------------------
# the lines that follow give the jet-veto efficiencies as a function of pt
#         pt            matched eff      resummed eff     fixed-order eff
   2.00000000E+001   4.57867126E-001   5.35295298E-001   4.60774143E-001
   2.50000000E+001   5.43423588E-001   6.07715601E-001   5.45786875E-001
   3.00000000E+001   6.15192618E-001   6.50310413E-001   6.17068533E-001
   3.50000000E+001   6.70893959E-001   6.73488379E-001   6.72113648E-001
   4.00000000E+001   7.15893054E-001   6.85662506E-001   7.16667414E-001
   4.50000000E+001   7.52379927E-001   6.92095954E-001   7.52873009E-001
   5.00000000E+001   7.83237618E-001   6.95600193E-001   7.83562730E-001
   5.50000000E+001   8.09562979E-001   6.97585632E-001   8.09784074E-001
   6.00000000E+001   8.31718556E-001   6.98756873E-001   8.31871310E-001
   6.50000000E+001   8.51490371E-001   6.99474465E-001   8.51599627E-001
   7.00000000E+001   8.68140156E-001   6.99929442E-001   8.68219188E-001
   7.50000000E+001   8.81958453E-001   7.00226867E-001   8.82015993E-001
   8.00000000E+001   8.94082433E-001   7.00426654E-001   8.94125116E-001
   8.50000000E+001   9.05036849E-001   7.00564136E-001   9.05069202E-001
   9.00000000E+001   9.14399867E-001   7.00660803E-001   9.14424589E-001
   9.50000000E+001   9.22964553E-001   7.00730097E-001   9.22983790E-001
   1.00000000E+002   9.30107589E-001   7.00780637E-001   9.30122626E-001
   1.05000000E+002   9.36517520E-001   7.00818081E-001   9.36529413E-001
   1.10000000E+002   9.42307605E-001   7.00846219E-001   9.42317122E-001
   1.15000000E+002   9.47491318E-001   7.00867640E-001   9.47498999E-001
   1.20000000E+002   9.52006443E-001   7.00884141E-001   9.52012685E-001
   1.25000000E+002   9.55908099E-001   7.00896990E-001   9.55913202E-001
   1.30000000E+002   9.59808984E-001   7.00907097E-001   9.59813209E-001
   1.35000000E+002   9.63251169E-001   7.00915120E-001   9.63254687E-001
   1.40000000E+002   9.66123845E-001   7.00921544E-001   9.66126784E-001
   1.45000000E+002   9.68887020E-001   7.00926728E-001   9.68889494E-001
   1.50000000E+002   9.71223267E-001   7.00930943E-001   9.71225357E-001
   1.55000000E+002   9.73730022E-001   7.00934393E-001   9.73731807E-001
   1.60000000E+002   9.75442830E-001   7.00937236E-001   9.75444349E-001
   1.65000000E+002   9.77281982E-001   7.00939593E-001   9.77283286E-001
   1.70000000E+002   9.78903497E-001   7.00941558E-001   9.78904621E-001
   1.75000000E+002   9.80484873E-001   7.00943205E-001   9.80485847E-001
   1.80000000E+002   9.81940341E-001   7.00944592E-001   9.81941189E-001
   1.85000000E+002   9.83250386E-001   7.00945766E-001   9.83251126E-001
   1.90000000E+002   9.84169878E-001   7.00946764E-001   9.84170523E-001
   1.95000000E+002   9.85361745E-001   7.00947617E-001   9.85362313E-001
   2.00000000E+002   9.86382905E-001   7.00948348E-001   9.86383405E-001
   2.05000000E+002   9.87259623E-001   7.00948977E-001   9.87260065E-001
   2.10000000E+002   9.88055903E-001   7.00949520E-001   9.88056295E-001
   2.15000000E+002   9.88933876E-001   7.00949991E-001   9.88934225E-001
   2.20000000E+002   9.89579426E-001   7.00950401E-001   9.89579737E-001
   2.25000000E+002   9.90260875E-001   7.00950758E-001   9.90261153E-001
   2.30000000E+002   9.90900671E-001   7.00951071E-001   9.90900921E-001
   2.35000000E+002   9.91501582E-001   7.00951346E-001   9.91501805E-001
   2.40000000E+002   9.91923059E-001   7.00951587E-001   9.91923260E-001
   2.45000000E+002   9.92472829E-001   7.00951800E-001   9.92473011E-001
