# ./jetvheto -in n3lo-fixed-order/H125-LHC13-R04-mb-0-mt-1725-xmur050-xmuf025-log.fxd -xQ 0.25 -out benchmarks-n3lo-smallR/H125-LHC13-R04-mb-0-mt-1725-xmur050-xmuf025-xQ025-NNLO+NNLLb.R0-1.5.res -scheme b -order 2 -ptmax 500.01 -small-r -fixed_order 2 -loop-mass t -R0 1.5
# process = H    
# collider = pp   
# rts =  13000.000
# M   =    125.000
# muR =     62.500
# muF =     31.250
# Q   =     31.250
# p   =      5.000
# include_c1_squared =   F
# loop_mass  = t   
# alphas(MZ) =    0.11800
# alphas(M) =    0.11264
# alphas(muR) =    0.12516
# Rjet =      0.400
# order = NNLL
# pdf name and set = PDF4LHC15_nnlo_mc.LHgrid,    0
# matching scheme = b
# total cross sections [nb] at LO, NLOdiff, NNLOdiff, N3LOdiff =     0.014513    0.020714    0.009723    0.001827
#----------------------------------------------------------------------
# the lines that follow give the jet-veto efficiencies as a function of pt
#         pt            matched eff      resummed eff     fixed-order eff
   2.00000000E+001   3.74745728E-001   4.87403612E-001   3.17487847E-001
   2.50000000E+001   4.57046640E-001   5.58309444E-001   4.26754407E-001
   3.00000000E+001   5.27479406E-001   6.00618418E-001   5.11966558E-001
   3.50000000E+001   5.88356772E-001   6.23875622E-001   5.80470117E-001
   4.00000000E+001   6.40461286E-001   6.36169154E-001   6.36364792E-001
   4.50000000E+001   6.84819911E-001   6.42690018E-001   6.82611528E-001
   5.00000000E+001   7.22784412E-001   6.46249470E-001   7.21540031E-001
   5.50000000E+001   7.55176061E-001   6.48268670E-001   7.54444177E-001
   6.00000000E+001   7.83082774E-001   6.49460687E-001   7.82634803E-001
   6.50000000E+001   8.07261994E-001   6.50191328E-001   8.06977613E-001
   7.00000000E+001   8.28315333E-001   6.50654705E-001   8.28128874E-001
   7.50000000E+001   8.46513988E-001   6.50957676E-001   8.46387939E-001
   8.00000000E+001   8.62653653E-001   6.51161211E-001   8.62566302E-001
   8.50000000E+001   8.76767795E-001   6.51301283E-001   8.76705809E-001
   9.00000000E+001   8.89291052E-001   6.51399778E-001   8.89246129E-001
   9.50000000E+001   9.00274318E-001   6.51470384E-001   9.00241110E-001
   1.00000000E+002   9.10114724E-001   6.51521883E-001   9.10089763E-001
   1.05000000E+002   9.18917724E-001   6.51560038E-001   9.18898671E-001
   1.10000000E+002   9.26724462E-001   6.51588711E-001   9.26709709E-001
   1.15000000E+002   9.33793511E-001   6.51610539E-001   9.33781944E-001
   1.20000000E+002   9.40128730E-001   6.51627354E-001   9.40119549E-001
   1.25000000E+002   9.45741079E-001   6.51640448E-001   9.45733708E-001
   1.30000000E+002   9.50854830E-001   6.51650747E-001   9.50848857E-001
   1.35000000E+002   9.55457528E-001   6.51658923E-001   9.55452646E-001
   1.40000000E+002   9.59633557E-001   6.51665469E-001   9.59629530E-001
   1.45000000E+002   9.63457736E-001   6.51670752E-001   9.63454390E-001
   1.50000000E+002   9.66878906E-001   6.51675047E-001   9.66876104E-001
   1.55000000E+002   9.69989119E-001   6.51678563E-001   9.69986758E-001
   1.60000000E+002   9.72840018E-001   6.51681460E-001   9.72838016E-001
   1.65000000E+002   9.75432898E-001   6.51683862E-001   9.75431192E-001
   1.70000000E+002   9.77761950E-001   6.51685864E-001   9.77760487E-001
   1.75000000E+002   9.79890869E-001   6.51687542E-001   9.79889608E-001
   1.80000000E+002   9.81838865E-001   6.51688956E-001   9.81837773E-001
   1.85000000E+002   9.83600896E-001   6.51690153E-001   9.83599946E-001
   1.90000000E+002   9.85233480E-001   6.51691170E-001   9.85232651E-001
   1.95000000E+002   9.86736870E-001   6.51692039E-001   9.86736143E-001
   2.00000000E+002   9.88086614E-001   6.51692784E-001   9.88085975E-001
   2.05000000E+002   9.89343234E-001   6.51693425E-001   9.89342669E-001
   2.10000000E+002   9.90502495E-001   6.51693979E-001   9.90501995E-001
   2.15000000E+002   9.91508668E-001   6.51694459E-001   9.91508223E-001
   2.20000000E+002   9.92461779E-001   6.51694876E-001   9.92461383E-001
   2.25000000E+002   9.93347090E-001   6.51695240E-001   9.93346737E-001
   2.30000000E+002   9.94132751E-001   6.51695559E-001   9.94132434E-001
   2.35000000E+002   9.94850427E-001   6.51695839E-001   9.94850142E-001
   2.40000000E+002   9.95496997E-001   6.51696085E-001   9.95496740E-001
   2.45000000E+002   9.96106668E-001   6.51696302E-001   9.96106437E-001
