# ./jetvheto -in n3lo-fixed-order/H125-LHC13-R04-mb-0-mt-1725-xmur100-xmuf100-log.fxd -xQ 0.5 -out benchmarks-n3lo-smallR/H125-LHC13-R04-mb-0-mt-1725-xmur100-xmuf100-xQ050-NNLO+NNLLb.R0-0.5.res -scheme b -order 2 -ptmax 500.01 -small-r -fixed_order 2 -loop-mass t -R0 0.5
# process = H    
# collider = pp   
# rts =  13000.000
# M   =    125.000
# muR =    125.000
# muF =    125.000
# Q   =     62.500
# p   =      5.000
# include_c1_squared =   F
# loop_mass  = t   
# alphas(MZ) =    0.11800
# alphas(M) =    0.11264
# alphas(muR) =    0.11264
# Rjet =      0.400
# order = NNLL
# pdf name and set = PDF4LHC15_nnlo_mc.LHgrid,    0
# matching scheme = b
# total cross sections [nb] at LO, NLOdiff, NNLOdiff, N3LOdiff =     0.013801    0.017514    0.010146    0.003834
#----------------------------------------------------------------------
# the lines that follow give the jet-veto efficiencies as a function of pt
#         pt            matched eff      resummed eff     fixed-order eff
   2.00000000E+001   4.29468450E-001   5.20830605E-001   3.54033455E-001
   2.50000000E+001   5.13888163E-001   6.04385424E-001   4.61286580E-001
   3.00000000E+001   5.81813537E-001   6.63675066E-001   5.43462220E-001
   3.50000000E+001   6.37282976E-001   7.05220500E-001   6.08508831E-001
   4.00000000E+001   6.83118471E-001   7.33791103E-001   6.61203589E-001
   4.50000000E+001   7.21196797E-001   7.52944196E-001   7.04404447E-001
   5.00000000E+001   7.53364757E-001   7.65397591E-001   7.40494892E-001
   5.50000000E+001   7.80726525E-001   7.73241222E-001   7.70889733E-001
   6.00000000E+001   8.04367716E-001   7.78047242E-001   7.96874542E-001
   6.50000000E+001   8.24905604E-001   7.80938396E-001   8.19206785E-001
   7.00000000E+001   8.42746125E-001   7.82666130E-001   8.38409214E-001
   7.50000000E+001   8.58541984E-001   7.83704167E-001   8.55230292E-001
   8.00000000E+001   8.72504527E-001   7.84337591E-001   8.69962422E-001
   8.50000000E+001   8.84788245E-001   7.84732918E-001   8.82823656E-001
   9.00000000E+001   8.95739071E-001   7.84986327E-001   8.94209219E-001
   9.50000000E+001   9.05431137E-001   7.85153421E-001   9.04230001E-001
   1.00000000E+002   9.14118992E-001   7.85266717E-001   9.13167919E-001
   1.05000000E+002   9.21893901E-001   7.85345588E-001   9.21134551E-001
   1.10000000E+002   9.28782617E-001   7.85401838E-001   9.28171457E-001
   1.15000000E+002   9.35049422E-001   7.85442838E-001   9.34553636E-001
   1.20000000E+002   9.40649413E-001   7.85473309E-001   9.40244216E-001
   1.25000000E+002   9.45722978E-001   7.85496349E-001   9.45389469E-001
   1.30000000E+002   9.50318910E-001   7.85514037E-001   9.50042546E-001
   1.35000000E+002   9.54458865E-001   7.85527802E-001   9.54228420E-001
   1.40000000E+002   9.58206494E-001   7.85538645E-001   9.58013167E-001
   1.45000000E+002   9.61655717E-001   7.85547278E-001   9.61492620E-001
   1.50000000E+002   9.64733908E-001   7.85554219E-001   9.64595577E-001
   1.55000000E+002   9.67582854E-001   7.85559849E-001   9.67464933E-001
   1.60000000E+002   9.70185915E-001   7.85564452E-001   9.70084916E-001
   1.65000000E+002   9.72542542E-001   7.85568244E-001   9.72455647E-001
   1.70000000E+002   9.74709438E-001   7.85571388E-001   9.74634361E-001
   1.75000000E+002   9.76657472E-001   7.85574011E-001   9.76592344E-001
   1.80000000E+002   9.78465293E-001   7.85576212E-001   9.78408580E-001
   1.85000000E+002   9.80105422E-001   7.85578069E-001   9.80055856E-001
   1.90000000E+002   9.81625292E-001   7.85579644E-001   9.81581823E-001
   1.95000000E+002   9.83031051E-001   7.85580985E-001   9.82992805E-001
   2.00000000E+002   9.84304742E-001   7.85582132E-001   9.84270986E-001
   2.05000000E+002   9.85494510E-001   7.85583118E-001   9.85464627E-001
   2.10000000E+002   9.86569863E-001   7.85583969E-001   9.86543334E-001
   2.15000000E+002   9.87551016E-001   7.85584705E-001   9.87527400E-001
   2.20000000E+002   9.88471980E-001   7.85585344E-001   9.88450903E-001
   2.25000000E+002   9.89314467E-001   7.85585902E-001   9.89295609E-001
   2.30000000E+002   9.90094737E-001   7.85586389E-001   9.90077825E-001
   2.35000000E+002   9.90826854E-001   7.85586817E-001   9.90811652E-001
   2.40000000E+002   9.91483587E-001   7.85587193E-001   9.91469891E-001
   2.45000000E+002   9.92101583E-001   7.85587524E-001   9.92089219E-001
