# ./jetvheto -in n3lo-fixed-order/H125-LHC13-R04-heft-xmur050-xmuf050-log.fxd -xQ 0.333 -out benchmarks-n3lo-smallR/H125-LHC13-R04-heft-xmur050-xmuf050-xQ033-N3LO+NNLLa.R0-0.5.res -scheme a -order 2 -ptmax 500.01 -fixed_order 3 -small-r -R0 0.5
# process = H    
# collider = pp   
# rts =  13000.000
# M   =    125.000
# muR =     62.500
# muF =     62.500
# Q   =     41.625
# p   =      5.000
# include_c1_squared =   F
# loop_mass  = none
# alphas(MZ) =    0.11800
# alphas(M) =    0.11264
# alphas(muR) =    0.12516
# Rjet =      0.400
# order = NNLL
# pdf name and set = PDF4LHC15_nnlo_mc.LHgrid,    0
# matching scheme = a
# total cross sections [nb] at LO, NLOdiff, NNLOdiff, N3LOdiff =     0.015055    0.019611    0.008998    0.001413
#----------------------------------------------------------------------
# the lines that follow give the jet-veto efficiencies as a function of pt
#         pt            matched eff      resummed eff     fixed-order eff
   2.00000000E+001   4.49837435E-001   4.84901687E-001   4.50065620E-001
   2.50000000E+001   5.35900370E-001   5.61411825E-001   5.35117843E-001
   3.00000000E+001   6.08511747E-001   6.13297290E-001   6.07875407E-001
   3.50000000E+001   6.66124929E-001   6.46983056E-001   6.65471707E-001
   4.00000000E+001   7.10936992E-001   6.67936960E-001   7.10255567E-001
   4.50000000E+001   7.49985996E-001   6.80583937E-001   7.49462038E-001
   5.00000000E+001   7.81301328E-001   6.88135414E-001   7.80889863E-001
   5.50000000E+001   8.08556363E-001   6.92676025E-001   8.08255100E-001
   6.00000000E+001   8.30880907E-001   6.95457108E-001   8.30655804E-001
   6.50000000E+001   8.51520549E-001   6.97202109E-001   8.51359759E-001
   7.00000000E+001   8.67524021E-001   6.98325586E-001   8.67401068E-001
   7.50000000E+001   8.81814075E-001   6.99067447E-001   8.81721105E-001
   8.00000000E+001   8.94701154E-001   6.99569141E-001   8.94630807E-001
   8.50000000E+001   9.06129412E-001   6.99915978E-001   9.06075690E-001
   9.00000000E+001   9.16235772E-001   7.00160637E-001   9.16194285E-001
   9.50000000E+001   9.24335772E-001   7.00336418E-001   9.24302841E-001
   1.00000000E+002   9.31995294E-001   7.00464840E-001   9.31969203E-001
   1.05000000E+002   9.38135129E-001   7.00560102E-001   9.38114001E-001
   1.10000000E+002   9.43796921E-001   7.00631755E-001   9.43779750E-001
   1.15000000E+002   9.49116934E-001   7.00686339E-001   9.49102964E-001
   1.20000000E+002   9.53916717E-001   7.00728408E-001   9.53905269E-001
   1.25000000E+002   9.57877863E-001   7.00761182E-001   9.57868349E-001
   1.30000000E+002   9.61341226E-001   7.00786969E-001   9.61333266E-001
   1.35000000E+002   9.64804567E-001   7.00807445E-001   9.64797911E-001
   1.40000000E+002   9.67939816E-001   7.00823842E-001   9.67934219E-001
   1.45000000E+002   9.70628465E-001   7.00837077E-001   9.70623723E-001
   1.50000000E+002   9.72729454E-001   7.00847839E-001   9.72725389E-001
   1.55000000E+002   9.75131247E-001   7.00856650E-001   9.75127782E-001
   1.60000000E+002   9.77306243E-001   7.00863911E-001   9.77303274E-001
   1.65000000E+002   9.78638076E-001   7.00869930E-001   9.78635491E-001
   1.70000000E+002   9.80370109E-001   7.00874948E-001   9.80367872E-001
   1.75000000E+002   9.81992363E-001   7.00879155E-001   9.81990419E-001
   1.80000000E+002   9.83242237E-001   7.00882698E-001   9.83240537E-001
   1.85000000E+002   9.84385675E-001   7.00885698E-001   9.84384183E-001
   1.90000000E+002   9.85565737E-001   7.00888248E-001   9.85564426E-001
   1.95000000E+002   9.86653616E-001   7.00890426E-001   9.86652461E-001
   2.00000000E+002   9.87624688E-001   7.00892293E-001   9.87623667E-001
   2.05000000E+002   9.88412503E-001   7.00893900E-001   9.88411596E-001
   2.10000000E+002   9.89211390E-001   7.00895289E-001   9.89210583E-001
   2.15000000E+002   9.89833941E-001   7.00896492E-001   9.89833220E-001
   2.20000000E+002   9.90709341E-001   7.00897539E-001   9.90708699E-001
   2.25000000E+002   9.91188484E-001   7.00898452E-001   9.91187907E-001
   2.30000000E+002   9.91769064E-001   7.00899251E-001   9.91768546E-001
   2.35000000E+002   9.92213675E-001   7.00899952E-001   9.92213208E-001
   2.40000000E+002   9.92690966E-001   7.00900570E-001   9.92690544E-001
   2.45000000E+002   9.93243163E-001   7.00901114E-001   9.93242783E-001
