# ./jetvheto -in n3lo-fixed-order/H125-LHC13-R04-heft-xmur050-xmuf025-log.fxd -xQ 0.50 -out benchmarks-n3lo-smallR/H125-LHC13-R04-heft-xmur050-xmuf025-xQ050-N3LO+NNLLa.R0-1.5.res -scheme a -order 2 -ptmax 500.01 -fixed_order 3 -small-r -R0 1.5
# process = H    
# collider = pp   
# rts =  13000.000
# M   =    125.000
# muR =     62.500
# muF =     31.250
# Q   =     62.500
# p   =      5.000
# include_c1_squared =   F
# loop_mass  = none
# alphas(MZ) =    0.11800
# alphas(M) =    0.11264
# alphas(muR) =    0.12516
# Rjet =      0.400
# order = NNLL
# pdf name and set = PDF4LHC15_nnlo_mc.LHgrid,    0
# matching scheme = a
# total cross sections [nb] at LO, NLOdiff, NNLOdiff, N3LOdiff =     0.013759    0.019772    0.009723    0.001827
#----------------------------------------------------------------------
# the lines that follow give the jet-veto efficiencies as a function of pt
#         pt            matched eff      resummed eff     fixed-order eff
   2.00000000E+001   4.55496208E-001   4.89242570E-001   4.50421662E-001
   2.50000000E+001   5.44214862E-001   5.67956564E-001   5.38581774E-001
   3.00000000E+001   6.14108790E-001   6.24215761E-001   6.07931788E-001
   3.50000000E+001   6.69889911E-001   6.63930909E-001   6.63605119E-001
   4.00000000E+001   7.15455911E-001   6.91508405E-001   7.09554932E-001
   4.50000000E+001   7.53467354E-001   7.10207973E-001   7.48231785E-001
   5.00000000E+001   7.84773802E-001   7.22529126E-001   7.80304570E-001
   5.50000000E+001   8.12017029E-001   7.30418734E-001   8.08347860E-001
   6.00000000E+001   8.34543376E-001   7.35352401E-001   8.31584643E-001
   6.50000000E+001   8.52519709E-001   7.38393099E-001   8.50162676E-001
   7.00000000E+001   8.69365017E-001   7.40261544E-001   8.67519966E-001
   7.50000000E+001   8.83783116E-001   7.41419219E-001   8.82345556E-001
   8.00000000E+001   8.95780793E-001   7.42149144E-001   8.94657674E-001
   8.50000000E+001   9.06853617E-001   7.42620109E-001   9.05975513E-001
   9.00000000E+001   9.16546922E-001   7.42931921E-001   9.15856876E-001
   9.50000000E+001   9.23804899E-001   7.43143833E-001   9.23257619E-001
   1.00000000E+002   9.31779654E-001   7.43291504E-001   9.31344395E-001
   1.05000000E+002   9.37899688E-001   7.43396817E-001   9.37550109E-001
   1.10000000E+002   9.44206002E-001   7.43473508E-001   9.43923805E-001
   1.15000000E+002   9.49596331E-001   7.43530409E-001   9.49366732E-001
   1.20000000E+002   9.53852502E-001   7.43573335E-001   9.53664191E-001
   1.25000000E+002   9.57530751E-001   7.43606200E-001   9.57375307E-001
   1.30000000E+002   9.61350715E-001   7.43631696E-001   9.61221701E-001
   1.35000000E+002   9.64525774E-001   7.43651709E-001   9.64417982E-001
   1.40000000E+002   9.67483944E-001   7.43667586E-001   9.67393410E-001
   1.45000000E+002   9.70215534E-001   7.43680304E-001   9.70139075E-001
   1.50000000E+002   9.72542356E-001   7.43690580E-001   9.72477447E-001
   1.55000000E+002   9.74691348E-001   7.43698949E-001   9.74635981E-001
   1.60000000E+002   9.76949740E-001   7.43705816E-001   9.76902319E-001
   1.65000000E+002   9.78632323E-001   7.43711489E-001   9.78591495E-001
   1.70000000E+002   9.80039744E-001   7.43716204E-001   9.80004443E-001
   1.75000000E+002   9.81744834E-001   7.43720146E-001   9.81714216E-001
   1.80000000E+002   9.82906556E-001   7.43723459E-001   9.82879880E-001
   1.85000000E+002   9.84225352E-001   7.43726259E-001   9.84202042E-001
   1.90000000E+002   9.85284727E-001   7.43728636E-001   9.85264281E-001
   1.95000000E+002   9.86415975E-001   7.43730663E-001   9.86397989E-001
   2.00000000E+002   9.87233853E-001   7.43732399E-001   9.87217976E-001
   2.05000000E+002   9.88053112E-001   7.43733892E-001   9.88039056E-001
   2.10000000E+002   9.88808912E-001   7.43735180E-001   9.88796432E-001
   2.15000000E+002   9.89659691E-001   7.43736296E-001   9.89648586E-001
   2.20000000E+002   9.90275408E-001   7.43737266E-001   9.90265497E-001
   2.25000000E+002   9.90983770E-001   7.43738112E-001   9.90974904E-001
   2.30000000E+002   9.91509580E-001   7.43738852E-001   9.91501630E-001
   2.35000000E+002   9.91920727E-001   7.43739501E-001   9.91913580E-001
   2.40000000E+002   9.92485169E-001   7.43740072E-001   9.92478733E-001
   2.45000000E+002   9.92970244E-001   7.43740576E-001   9.92964436E-001
