# ./jetvheto -in n3lo-fixed-order/H125-LHC13-R04-mb-0-mt-1725-xmur025-xmuf050-log.fxd -xQ 0.25 -out benchmarks-n3lo-smallR/H125-LHC13-R04-mb-0-mt-1725-xmur025-xmuf050-xQ025-NNLO+NNLLa.res -scheme a -order 2 -ptmax 500.01 -fixed_order 2 -loop-mass t
# process = H    
# collider = pp   
# rts =  13000.000
# M   =    125.000
# muR =     31.250
# muF =     62.500
# Q   =     31.250
# p   =      5.000
# include_c1_squared =   F
# loop_mass  = t   
# alphas(MZ) =    0.11800
# alphas(M) =    0.11264
# alphas(muR) =    0.14091
# Rjet =      0.400
# order = NNLL
# pdf name and set = PDF4LHC15_nnlo_mc.LHgrid,    0
# matching scheme = a
# total cross sections [nb] at LO, NLOdiff, NNLOdiff, N3LOdiff =     0.019855    0.024744    0.005009   -0.002663
#----------------------------------------------------------------------
# the lines that follow give the jet-veto efficiencies as a function of pt
#         pt            matched eff      resummed eff     fixed-order eff
   2.00000000E+001   4.44005257E-001   4.47958926E-001   4.32957478E-001
   2.50000000E+001   5.29942778E-001   5.10726945E-001   5.23268277E-001
   3.00000000E+001   5.98878741E-001   5.47789674E-001   5.94997758E-001
   3.50000000E+001   6.55085342E-001   5.68018982E-001   6.52852727E-001
   4.00000000E+001   7.01481731E-001   5.78665036E-001   7.00189076E-001
   4.50000000E+001   7.40205836E-001   5.84297222E-001   7.39439888E-001
   5.00000000E+001   7.73066669E-001   5.87367010E-001   7.72597069E-001
   5.50000000E+001   8.00660233E-001   5.89106951E-001   8.00363223E-001
   6.00000000E+001   8.24319932E-001   5.90133596E-001   8.24125039E-001
   6.50000000E+001   8.44721088E-001   5.90762682E-001   8.44589142E-001
   7.00000000E+001   8.62408427E-001   5.91161576E-001   8.62316742E-001
   7.50000000E+001   8.77628372E-001   5.91422354E-001   8.77562874E-001
   8.00000000E+001   8.90985307E-001   5.91597530E-001   8.90937501E-001
   8.50000000E+001   9.02722124E-001   5.91718079E-001   9.02686522E-001
   9.00000000E+001   9.13047801E-001   5.91802843E-001   9.13020832E-001
   9.50000000E+001   9.22038071E-001   5.91863603E-001   9.22017282E-001
   1.00000000E+002   9.30098297E-001   5.91907920E-001   9.30082050E-001
   1.05000000E+002   9.37113913E-001   5.91940754E-001   9.37101049E-001
   1.10000000E+002   9.43384035E-001   5.91965428E-001   9.43373741E-001
   1.15000000E+002   9.48977917E-001   5.91984211E-001   9.48969590E-001
   1.20000000E+002   9.53992373E-001   5.91998681E-001   9.53985574E-001
   1.25000000E+002   9.58528893E-001   5.92009948E-001   9.58523292E-001
   1.30000000E+002   9.62506044E-001   5.92018811E-001   9.62501393E-001
   1.35000000E+002   9.66102560E-001   5.92025846E-001   9.66098675E-001
   1.40000000E+002   9.69359827E-001   5.92031479E-001   9.69356558E-001
   1.45000000E+002   9.72292449E-001   5.92036025E-001   9.72289680E-001
   1.50000000E+002   9.74976372E-001   5.92039721E-001   9.74974013E-001
   1.55000000E+002   9.77374607E-001   5.92042747E-001   9.77372588E-001
   1.60000000E+002   9.79544530E-001   5.92045240E-001   9.79542793E-001
   1.65000000E+002   9.81489659E-001   5.92047306E-001   9.81488158E-001
   1.70000000E+002   9.83278469E-001   5.92049029E-001   9.83277166E-001
   1.75000000E+002   9.84903401E-001   5.92050473E-001   9.84902266E-001
   1.80000000E+002   9.86345481E-001   5.92051690E-001   9.86344489E-001
   1.85000000E+002   9.87678132E-001   5.92052719E-001   9.87677261E-001
   1.90000000E+002   9.88895310E-001   5.92053595E-001   9.88894543E-001
   1.95000000E+002   9.89993135E-001   5.92054342E-001   9.89992458E-001
   2.00000000E+002   9.90992390E-001   5.92054983E-001   9.90991790E-001
   2.05000000E+002   9.91909490E-001   5.92055535E-001   9.91908957E-001
   2.10000000E+002   9.92717659E-001   5.92056011E-001   9.92717184E-001
   2.15000000E+002   9.93487331E-001   5.92056424E-001   9.93486906E-001
   2.20000000E+002   9.94187425E-001   5.92056784E-001   9.94187045E-001
   2.25000000E+002   9.94791629E-001   5.92057097E-001   9.94791288E-001
   2.30000000E+002   9.95405381E-001   5.92057371E-001   9.95405075E-001
   2.35000000E+002   9.95916925E-001   5.92057612E-001   9.95916649E-001
   2.40000000E+002   9.96399864E-001   5.92057824E-001   9.96399614E-001
   2.45000000E+002   9.96840712E-001   5.92058011E-001   9.96840486E-001
