# ./jetvheto -in n3lo-fixed-order/H125-LHC13-R04-mb-0-mt-1725-xmur050-xmuf100-log.fxd -xQ 0.5 -out benchmarks-n3lo-smallR/H125-LHC13-R04-mb-0-mt-1725-xmur050-xmuf100-xQ050-N3LO+NNLLb.res -scheme b -order 2 -ptmax 500.01 -fixed_order 3 -loop-mass t
# process = H    
# collider = pp   
# rts =  13000.000
# M   =    125.000
# muR =     62.500
# muF =    125.000
# Q   =     62.500
# p   =      5.000
# include_c1_squared =   F
# loop_mass  = t   
# alphas(MZ) =    0.11800
# alphas(M) =    0.11264
# alphas(muR) =    0.12516
# Rjet =      0.400
# order = NNLL
# pdf name and set = PDF4LHC15_nnlo_mc.LHgrid,    0
# matching scheme = b
# total cross sections [nb] at LO, NLOdiff, NNLOdiff, N3LOdiff =     0.016868    0.020591    0.008553    0.000949
#----------------------------------------------------------------------
# the lines that follow give the jet-veto efficiencies as a function of pt
#         pt            matched eff      resummed eff     fixed-order eff
   2.00000000E+001   4.61062282E-001   5.08437351E-001   4.44147613E-001
   2.50000000E+001   5.45395867E-001   5.86219827E-001   5.31088854E-001
   3.00000000E+001   6.18234348E-001   6.40664739E-001   6.07119654E-001
   3.50000000E+001   6.74304881E-001   6.78285241E-001   6.65155664E-001
   4.00000000E+001   7.19470658E-001   7.03754314E-001   7.11953965E-001
   4.50000000E+001   7.55768870E-001   7.20511403E-001   7.49666337E-001
   5.00000000E+001   7.86706794E-001   7.31155018E-001   7.81846163E-001
   5.50000000E+001   8.13324029E-001   7.37660769E-001   8.09509340E-001
   6.00000000E+001   8.35568613E-001   7.41495638E-001   8.32598772E-001
   6.50000000E+001   8.55875320E-001   7.43690908E-001   8.53579085E-001
   7.00000000E+001   8.72800761E-001   7.44923352E-001   8.71029528E-001
   7.50000000E+001   8.86526620E-001   7.45609169E-001   8.85160222E-001
   8.00000000E+001   8.98644144E-001   7.45991127E-001   8.97586419E-001
   8.50000000E+001   9.09838549E-001   7.46205596E-001   9.09015500E-001
   9.00000000E+001   9.19175932E-001   7.46327684E-001   9.18531151E-001
   9.50000000E+001   9.27944643E-001   7.46398398E-001   9.27435725E-001
   1.00000000E+002   9.35021022E-001   7.46440160E-001   9.34616627E-001
   1.05000000E+002   9.41402008E-001   7.46465336E-001   9.41078136E-001
   1.10000000E+002   9.47204309E-001   7.46480835E-001   9.46942949E-001
   1.15000000E+002   9.52398198E-001   7.46490578E-001   9.52185702E-001
   1.20000000E+002   9.56843482E-001   7.46496831E-001   9.56669565E-001
   1.25000000E+002   9.60591166E-001   7.46500925E-001   9.60447873E-001
   1.30000000E+002   9.64604684E-001   7.46503659E-001   9.64485783E-001
   1.35000000E+002   9.68047809E-001   7.46505520E-001   9.67948544E-001
   1.40000000E+002   9.70835251E-001   7.46506809E-001   9.70751967E-001
   1.45000000E+002   9.73560773E-001   7.46507719E-001   9.73490463E-001
   1.50000000E+002   9.75796034E-001   7.46508371E-001   9.75736407E-001
   1.55000000E+002   9.78444726E-001   7.46508847E-001   9.78393871E-001
   1.60000000E+002   9.79912351E-001   7.46509199E-001   9.79868816E-001
   1.65000000E+002   9.81704184E-001   7.46509463E-001   9.81666733E-001
   1.70000000E+002   9.83218014E-001   7.46509664E-001   9.83185663E-001
   1.75000000E+002   9.84768143E-001   7.46509820E-001   9.84740083E-001
   1.80000000E+002   9.86181379E-001   7.46509941E-001   9.86156947E-001
   1.85000000E+002   9.87444202E-001   7.46510037E-001   9.87422854E-001
   1.90000000E+002   9.88144739E-001   7.46510114E-001   9.88126031E-001
   1.95000000E+002   9.89314591E-001   7.46510176E-001   9.89298131E-001
   2.00000000E+002   9.90268049E-001   7.46510226E-001   9.90253524E-001
   2.05000000E+002   9.91041317E-001   7.46510268E-001   9.91028463E-001
   2.10000000E+002   9.91728333E-001   7.46510302E-001   9.91716927E-001
   2.15000000E+002   9.92597520E-001   7.46510331E-001   9.92587368E-001
   2.20000000E+002   9.93121310E-001   7.46510355E-001   9.93112253E-001
   2.25000000E+002   9.93737665E-001   7.46510376E-001   9.93729564E-001
   2.30000000E+002   9.94314956E-001   7.46510393E-001   9.94307692E-001
   2.35000000E+002   9.94843479E-001   7.46510408E-001   9.94836951E-001
   2.40000000E+002   9.95123077E-001   7.46510421E-001   9.95117200E-001
   2.45000000E+002   9.95628211E-001   7.46510432E-001   9.95622905E-001
