# ./jetvheto -in n3lo-fixed-order/H125-LHC13-R04-mb-475-mt-1725-xmur100-xmuf100-log.fxd -xQ 0.5 -out benchmarks-n3lo-smallR/H125-LHC13-R04-mb-475-mt-1725-xmur100-xmuf100-xQ050-N3LO+NNLLb.R0-0.5.res -scheme b -order 2 -ptmax 500.01 -fixed_order 3 -small-r -loop-mass t+b -R0 0.5
# process = H    
# collider = pp   
# rts =  13000.000
# M   =    125.000
# muR =    125.000
# muF =    125.000
# Q   =     62.500
# p   =      5.000
# include_c1_squared =   F
# loop_mass  = t+b 
# alphas(MZ) =    0.11800
# alphas(M) =    0.11264
# alphas(muR) =    0.11264
# Rjet =      0.400
# order = NNLL
# pdf name and set = PDF4LHC15_nnlo_mc.LHgrid,    0
# matching scheme = b
# total cross sections [nb] at LO, NLOdiff, NNLOdiff, N3LOdiff =     0.012292    0.016994    0.010146    0.003834
#----------------------------------------------------------------------
# the lines that follow give the jet-veto efficiencies as a function of pt
#         pt            matched eff      resummed eff     fixed-order eff
   2.00000000E+001   4.23366060E-001   4.99430816E-001   3.97974970E-001
   2.50000000E+001   5.09848566E-001   5.79517705E-001   4.91794485E-001
   3.00000000E+001   5.83768569E-001   6.36340573E-001   5.70830727E-001
   3.50000000E+001   6.42402623E-001   6.76153147E-001   6.32372721E-001
   4.00000000E+001   6.90170309E-001   7.03528701E-001   6.82195687E-001
   4.50000000E+001   7.29287420E-001   7.21877962E-001   7.22903550E-001
   5.00000000E+001   7.62557615E-001   7.33806531E-001   7.57489684E-001
   5.50000000E+001   7.91046134E-001   7.41317889E-001   7.87062825E-001
   6.00000000E+001   8.15173589E-001   7.45918995E-001   8.12064423E-001
   6.50000000E+001   8.36798256E-001   7.48685905E-001   8.34389891E-001
   7.00000000E+001   8.55127216E-001   7.50338696E-001   8.53266196E-001
   7.50000000E+001   8.70354660E-001   7.51331227E-001   8.68915734E-001
   8.00000000E+001   8.83840286E-001   7.51936563E-001   8.82724838E-001
   8.50000000E+001   8.96042140E-001   7.52314151E-001   8.95173737E-001
   9.00000000E+001   9.06531693E-001   7.52556055E-001   9.05851124E-001
   9.50000000E+001   9.16141318E-001   7.52715476E-001   9.15604325E-001
   1.00000000E+002   9.24182203E-001   7.52823515E-001   9.23755321E-001
   1.05000000E+002   9.31437253E-001   7.52898693E-001   9.31095317E-001
   1.10000000E+002   9.37951975E-001   7.52952287E-001   9.37676052E-001
   1.15000000E+002   9.43813489E-001   7.52991337E-001   9.43589165E-001
   1.20000000E+002   9.48875174E-001   7.53020351E-001   9.48691534E-001
   1.25000000E+002   9.53316698E-001   7.53042283E-001   9.53165332E-001
   1.30000000E+002   9.57736356E-001   7.53059117E-001   9.57610782E-001
   1.35000000E+002   9.61632481E-001   7.53072216E-001   9.61527659E-001
   1.40000000E+002   9.64899156E-001   7.53082532E-001   9.64811168E-001
   1.45000000E+002   9.68034754E-001   7.53090744E-001   9.67960469E-001
   1.50000000E+002   9.70692471E-001   7.53097347E-001   9.70629444E-001
   1.55000000E+002   9.73550367E-001   7.53102702E-001   9.73496621E-001
   1.60000000E+002   9.75485412E-001   7.53107080E-001   9.75439366E-001
   1.65000000E+002   9.77572538E-001   7.53110685E-001   9.77532916E-001
   1.70000000E+002   9.79396343E-001   7.53113675E-001   9.79362104E-001
   1.75000000E+002   9.81172239E-001   7.53116169E-001   9.81142536E-001
   1.80000000E+002   9.82791470E-001   7.53118262E-001   9.82765601E-001
   1.85000000E+002   9.84255064E-001   7.53120028E-001   9.84232456E-001
   1.90000000E+002   9.85279770E-001   7.53121525E-001   9.85259944E-001
   1.95000000E+002   9.86597981E-001   7.53122800E-001   9.86580536E-001
   2.00000000E+002   9.87716928E-001   7.53123891E-001   9.87701531E-001
   2.05000000E+002   9.88676469E-001   7.53124829E-001   9.88662839E-001
   2.10000000E+002   9.89543344E-001   7.53125637E-001   9.89531244E-001
   2.15000000E+002   9.90490500E-001   7.53126337E-001   9.90479731E-001
   2.20000000E+002   9.91183101E-001   7.53126945E-001   9.91173490E-001
   2.25000000E+002   9.91910636E-001   7.53127475E-001   9.91902037E-001
   2.30000000E+002   9.92586020E-001   7.53127938E-001   9.92578309E-001
   2.35000000E+002   9.93209418E-001   7.53128345E-001   9.93202487E-001
   2.40000000E+002   9.93634383E-001   7.53128702E-001   9.93628140E-001
   2.45000000E+002   9.94205287E-001   7.53129017E-001   9.94199651E-001
