# ./jetvheto -in n3lo-fixed-order/H125-LHC13-R04-mb-475-mt-1725-xmur050-xmuf100-log.fxd -xQ 0.5 -out benchmarks-n3lo-smallR/H125-LHC13-R04-mb-475-mt-1725-xmur050-xmuf100-xQ050-N3LO+NNLLa.R0-0.5.res -scheme a -order 2 -ptmax 500.01 -fixed_order 3 -small-r -loop-mass t+b -R0 0.5
# process = H    
# collider = pp   
# rts =  13000.000
# M   =    125.000
# muR =     62.500
# muF =    125.000
# Q   =     62.500
# p   =      5.000
# include_c1_squared =   F
# loop_mass  = t+b 
# alphas(MZ) =    0.11800
# alphas(M) =    0.11264
# alphas(muR) =    0.12516
# Rjet =      0.400
# order = NNLL
# pdf name and set = PDF4LHC15_nnlo_mc.LHgrid,    0
# matching scheme = a
# total cross sections [nb] at LO, NLOdiff, NNLOdiff, N3LOdiff =     0.015023    0.020252    0.008553    0.000949
#----------------------------------------------------------------------
# the lines that follow give the jet-veto efficiencies as a function of pt
#         pt            matched eff      resummed eff     fixed-order eff
   2.00000000E+001   4.43613079E-001   4.85153257E-001   4.34275701E-001
   2.50000000E+001   5.30046469E-001   5.59204135E-001   5.20687147E-001
   3.00000000E+001   6.05081829E-001   6.11022033E-001   5.97055125E-001
   3.50000000E+001   6.62998467E-001   6.46816999E-001   6.55665178E-001
   4.00000000E+001   7.09525839E-001   6.71042184E-001   7.03001592E-001
   4.50000000E+001   7.47016502E-001   6.86974303E-001   7.41403361E-001
   5.00000000E+001   7.78935041E-001   6.97088454E-001   7.74275319E-001
   5.50000000E+001   8.06356339E-001   7.03266078E-001   8.02589654E-001
   6.00000000E+001   8.29303784E-001   7.06903933E-001   8.26309804E-001
   6.50000000E+001   8.50262021E-001   7.08983637E-001   8.47913789E-001
   7.00000000E+001   8.67790830E-001   7.10149108E-001   8.65962067E-001
   7.50000000E+001   8.81929423E-001   7.10796118E-001   8.80509228E-001
   8.00000000E+001   8.94467382E-001   7.11155350E-001   8.93363259E-001
   8.50000000E+001   9.06041934E-001   7.11356260E-001   9.05180306E-001
   9.00000000E+001   9.15760720E-001   7.11470059E-001   9.15084552E-001
   9.50000000E+001   9.24875084E-001   7.11535562E-001   9.24340806E-001
   1.00000000E+002   9.32221041E-001   7.11573952E-001   9.31796185E-001
   1.05000000E+002   9.38874653E-001   7.11596881E-001   9.38534274E-001
   1.10000000E+002   9.44914331E-001   7.11610842E-001   9.44639596E-001
   1.15000000E+002   9.50320365E-001   7.11619505E-001   9.50096981E-001
   1.20000000E+002   9.54917927E-001   7.11624981E-001   9.54735085E-001
   1.25000000E+002   9.58840666E-001   7.11628504E-001   9.58690034E-001
   1.30000000E+002   9.63006632E-001   7.11630810E-001   9.62881653E-001
   1.35000000E+002   9.66612250E-001   7.11632345E-001   9.66507929E-001
   1.40000000E+002   9.69512719E-001   7.11633382E-001   9.69425203E-001
   1.45000000E+002   9.72361758E-001   7.11634094E-001   9.72287888E-001
   1.50000000E+002   9.74701012E-001   7.11634589E-001   9.74638375E-001
   1.55000000E+002   9.77461543E-001   7.11634939E-001   9.77408127E-001
   1.60000000E+002   9.78987167E-001   7.11635189E-001   9.78941444E-001
   1.65000000E+002   9.80860064E-001   7.11635370E-001   9.80820738E-001
   1.70000000E+002   9.82441706E-001   7.11635503E-001   9.82407738E-001
   1.75000000E+002   9.84064533E-001   7.11635601E-001   9.84035074E-001
   1.80000000E+002   9.85534397E-001   7.11635675E-001   9.85508749E-001
   1.85000000E+002   9.86855943E-001   7.11635731E-001   9.86833536E-001
   1.90000000E+002   9.87590880E-001   7.11635774E-001   9.87571245E-001
   1.95000000E+002   9.88816159E-001   7.11635807E-001   9.88798885E-001
   2.00000000E+002   9.89815910E-001   7.11635833E-001   9.89800670E-001
   2.05000000E+002   9.90624806E-001   7.11635854E-001   9.90611320E-001
   2.10000000E+002   9.91351002E-001   7.11635870E-001   9.91339035E-001
   2.15000000E+002   9.92253867E-001   7.11635883E-001   9.92243217E-001
   2.20000000E+002   9.92804856E-001   7.11635894E-001   9.92795355E-001
   2.25000000E+002   9.93449721E-001   7.11635903E-001   9.93441224E-001
   2.30000000E+002   9.94051183E-001   7.11635910E-001   9.94043564E-001
   2.35000000E+002   9.94600529E-001   7.11635916E-001   9.94593682E-001
   2.40000000E+002   9.94893931E-001   7.11635921E-001   9.94887766E-001
   2.45000000E+002   9.95422213E-001   7.11635925E-001   9.95416648E-001
