# ./jetvheto -in n3lo-fixed-order/H125-LHC13-R04-mb-475-mt-1725-xmur025-xmuf025-log.fxd -xQ 0.25 -out benchmarks-n3lo-smallR/H125-LHC13-R04-mb-475-mt-1725-xmur025-xmuf025-xQ025-N3LO+NNLLb.R0-1.5.res -scheme b -order 2 -ptmax 500.01 -fixed_order 3 -small-r -loop-mass t+b -R0 1.5
# process = H    
# collider = pp   
# rts =  13000.000
# M   =    125.000
# muR =     31.250
# muF =     31.250
# Q   =     31.250
# p   =      5.000
# include_c1_squared =   F
# loop_mass  = t+b 
# alphas(MZ) =    0.11800
# alphas(M) =    0.11264
# alphas(muR) =    0.14091
# Rjet =      0.400
# order = NNLL
# pdf name and set = PDF4LHC15_nnlo_mc.LHgrid,    0
# matching scheme = b
# total cross sections [nb] at LO, NLOdiff, NNLOdiff, N3LOdiff =     0.016156    0.025248    0.006043   -0.002471
#----------------------------------------------------------------------
# the lines that follow give the jet-veto efficiencies as a function of pt
#         pt            matched eff      resummed eff     fixed-order eff
   2.00000000E+001   4.61119180E-001   4.22804408E-001   4.73361890E-001
   2.50000000E+001   5.51679686E-001   4.81637952E-001   5.57907042E-001
   3.00000000E+001   6.22122555E-001   5.16585876E-001   6.25013535E-001
   3.50000000E+001   6.77922938E-001   5.35741020E-001   6.79173210E-001
   4.00000000E+001   7.24080506E-001   5.45848415E-001   7.24625035E-001
   4.50000000E+001   7.63128895E-001   5.51204268E-001   7.63371502E-001
   5.00000000E+001   7.95391748E-001   5.54126128E-001   7.95495231E-001
   5.50000000E+001   8.24057135E-001   5.55783097E-001   8.24104927E-001
   6.00000000E+001   8.47167521E-001   5.56761088E-001   8.47184049E-001
   6.50000000E+001   8.64773296E-001   5.57360474E-001   8.64770902E-001
   7.00000000E+001   8.82259925E-001   5.57740581E-001   8.82253257E-001
   7.50000000E+001   8.97005828E-001   5.57989096E-001   8.96997862E-001
   8.00000000E+001   9.08752141E-001   5.58156042E-001   9.08743249E-001
   8.50000000E+001   9.20003262E-001   5.58270932E-001   9.19995203E-001
   9.00000000E+001   9.29756577E-001   5.58351718E-001   9.29749497E-001
   9.50000000E+001   9.36076657E-001   5.58409628E-001   9.36069876E-001
   1.00000000E+002   9.44241714E-001   5.58451867E-001   9.44236164E-001
   1.05000000E+002   9.49847960E-001   5.58483162E-001   9.49843066E-001
   1.10000000E+002   9.56203683E-001   5.58506679E-001   9.56199645E-001
   1.15000000E+002   9.61477074E-001   5.58524582E-001   9.61473671E-001
   1.20000000E+002   9.65262398E-001   5.58538373E-001   9.65259433E-001
   1.25000000E+002   9.68458457E-001   5.58549112E-001   9.68455876E-001
   1.30000000E+002   9.72109133E-001   5.58557559E-001   9.72106942E-001
   1.35000000E+002   9.74904823E-001   5.58564265E-001   9.74902930E-001
   1.40000000E+002   9.77628467E-001   5.58569634E-001   9.77626842E-001
   1.45000000E+002   9.80157254E-001   5.58573967E-001   9.80155857E-001
   1.50000000E+002   9.82226123E-001   5.58577490E-001   9.82224912E-001
   1.55000000E+002   9.84143864E-001   5.58580374E-001   9.84142813E-001
   1.60000000E+002   9.86393935E-001   5.58582750E-001   9.86393034E-001
   1.65000000E+002   9.87761690E-001   5.58584720E-001   9.87760899E-001
   1.70000000E+002   9.88800794E-001   5.58586362E-001   9.88800097E-001
   1.75000000E+002   9.90433070E-001   5.58587738E-001   9.90432465E-001
   1.80000000E+002   9.91243132E-001   5.58588898E-001   9.91242596E-001
   1.85000000E+002   9.92454174E-001   5.58589879E-001   9.92453704E-001
   1.90000000E+002   9.93269965E-001   5.58590713E-001   9.93269549E-001
   1.95000000E+002   9.94284725E-001   5.58591426E-001   9.94284359E-001
   2.00000000E+002   9.94842755E-001   5.58592037E-001   9.94842428E-001
   2.05000000E+002   9.95432664E-001   5.58592563E-001   9.95432372E-001
   2.10000000E+002   9.95956394E-001   5.58593017E-001   9.95956133E-001
   2.15000000E+002   9.96710632E-001   5.58593410E-001   9.96710401E-001
   2.20000000E+002   9.97088136E-001   5.58593753E-001   9.97087928E-001
   2.25000000E+002   9.97667701E-001   5.58594052E-001   9.97667515E-001
   2.30000000E+002   9.97993108E-001   5.58594313E-001   9.97992941E-001
   2.35000000E+002   9.98142729E-001   5.58594542E-001   9.98142577E-001
   2.40000000E+002   9.98587877E-001   5.58594744E-001   9.98587740E-001
   2.45000000E+002   9.98910739E-001   5.58594923E-001   9.98910616E-001
