# ./jetvheto -in n3lo-fixed-order/H125-LHC13-R04-mb-475-mt-1725-xmur050-xmuf050-log.fxd -xQ 0.333 -out benchmarks-n3lo-smallR/H125-LHC13-R04-mb-475-mt-1725-xmur050-xmuf050-xQ033-NNLO+NNLLa.R0-1.5.res -scheme a -order 2 -ptmax 500.01 -fixed_order 2 -small-r -loop-mass t+b -R0 1.5
# process = H    
# collider = pp   
# rts =  13000.000
# M   =    125.000
# muR =     62.500
# muF =     62.500
# Q   =     41.625
# p   =      5.000
# include_c1_squared =   F
# loop_mass  = t+b 
# alphas(MZ) =    0.11800
# alphas(M) =    0.11264
# alphas(muR) =    0.12516
# Rjet =      0.400
# order = NNLL
# pdf name and set = PDF4LHC15_nnlo_mc.LHgrid,    0
# matching scheme = a
# total cross sections [nb] at LO, NLOdiff, NNLOdiff, N3LOdiff =     0.014147    0.020254    0.008998    0.001413
#----------------------------------------------------------------------
# the lines that follow give the jet-veto efficiencies as a function of pt
#         pt            matched eff      resummed eff     fixed-order eff
   2.00000000E+001   4.50346758E-001   4.69494394E-001   4.51585809E-001
   2.50000000E+001   5.36541106E-001   5.41104578E-001   5.37845647E-001
   3.00000000E+001   6.05057870E-001   5.89621796E-001   6.05618957E-001
   3.50000000E+001   6.60103168E-001   6.21104969E-001   6.60103954E-001
   4.00000000E+001   7.04851923E-001   6.40681611E-001   7.04623301E-001
   4.50000000E+001   7.42087264E-001   6.52493658E-001   7.41826274E-001
   5.00000000E+001   7.73368959E-001   6.59544765E-001   7.73153273E-001
   5.50000000E+001   7.99859386E-001   6.63783659E-001   7.99700298E-001
   6.00000000E+001   8.22565901E-001   6.66379563E-001   8.22453602E-001
   6.50000000E+001   8.42141605E-001   6.68008209E-001   8.42063586E-001
   7.00000000E+001   8.59231566E-001   6.69056702E-001   8.59177351E-001
   7.50000000E+001   8.74024409E-001   6.69749016E-001   8.73986041E-001
   8.00000000E+001   8.87058803E-001   6.70217188E-001   8.87031290E-001
   8.50000000E+001   8.98581786E-001   6.70540843E-001   8.98561694E-001
   9.00000000E+001   9.08691138E-001   6.70769146E-001   9.08676257E-001
   9.50000000E+001   9.17598333E-001   6.70933173E-001   9.17587048E-001
   1.00000000E+002   9.25568326E-001   6.71053008E-001   9.25559652E-001
   1.05000000E+002   9.32648712E-001   6.71141898E-001   9.32641906E-001
   1.10000000E+002   9.38944760E-001   6.71208758E-001   9.38939368E-001
   1.15000000E+002   9.44615948E-001   6.71259692E-001   9.44611611E-001
   1.20000000E+002   9.49689492E-001   6.71298947E-001   9.49685968E-001
   1.25000000E+002   9.54299602E-001   6.71329529E-001   9.54296709E-001
   1.30000000E+002   9.58397727E-001   6.71353591E-001   9.58395322E-001
   1.35000000E+002   9.62107011E-001   6.71372697E-001   9.62105002E-001
   1.40000000E+002   9.65484078E-001   6.71387997E-001   9.65482383E-001
   1.45000000E+002   9.68525849E-001   6.71400347E-001   9.68524408E-001
   1.50000000E+002   9.71311613E-001   6.71410389E-001   9.71310382E-001
   1.55000000E+002   9.73832780E-001   6.71418610E-001   9.73831721E-001
   1.60000000E+002   9.76119908E-001   6.71425385E-001   9.76118993E-001
   1.65000000E+002   9.78186687E-001   6.71431002E-001   9.78185892E-001
   1.70000000E+002   9.80070746E-001   6.71435684E-001   9.80070053E-001
   1.75000000E+002   9.81815518E-001   6.71439609E-001   9.81814911E-001
   1.80000000E+002   9.83375339E-001   6.71442916E-001   9.83374805E-001
   1.85000000E+002   9.84824982E-001   6.71445715E-001   9.84824510E-001
   1.90000000E+002   9.86145552E-001   6.71448095E-001   9.86145135E-001
   1.95000000E+002   9.87347721E-001   6.71450127E-001   9.87347351E-001
   2.00000000E+002   9.88443893E-001   6.71451869E-001   9.88443563E-001
   2.05000000E+002   9.89455694E-001   6.71453369E-001   9.89455399E-001
   2.10000000E+002   9.90358981E-001   6.71454664E-001   9.90358717E-001
   2.15000000E+002   9.91217188E-001   6.71455787E-001   9.91216951E-001
   2.20000000E+002   9.92004696E-001   6.71456764E-001   9.92004483E-001
   2.25000000E+002   9.92697130E-001   6.71457616E-001   9.92696938E-001
   2.30000000E+002   9.93373808E-001   6.71458361E-001   9.93373635E-001
   2.35000000E+002   9.93963839E-001   6.71459016E-001   9.93963683E-001
   2.40000000E+002   9.94516961E-001   6.71459592E-001   9.94516819E-001
   2.45000000E+002   9.95015772E-001   6.71460100E-001   9.95015643E-001
