# ./jetvheto -in n3lo-fixed-order/H125-LHC13-R04-mb-0-mt-1725-xmur100-xmuf100-log.fxd -xQ 0.25 -out benchmarks-n3lo-smallR/H125-LHC13-R04-mb-0-mt-1725-xmur100-xmuf100-xQ025-NNLO+NNLLb.R0-2.0.res -scheme b -order 2 -ptmax 500.01 -small-r -fixed_order 2 -loop-mass t -R0 2.0
# process = H    
# collider = pp   
# rts =  13000.000
# M   =    125.000
# muR =    125.000
# muF =    125.000
# Q   =     31.250
# p   =      5.000
# include_c1_squared =   F
# loop_mass  = t   
# alphas(MZ) =    0.11800
# alphas(M) =    0.11264
# alphas(muR) =    0.11264
# Rjet =      0.400
# order = NNLL
# pdf name and set = PDF4LHC15_nnlo_mc.LHgrid,    0
# matching scheme = b
# total cross sections [nb] at LO, NLOdiff, NNLOdiff, N3LOdiff =     0.013801    0.017514    0.010146    0.003834
#----------------------------------------------------------------------
# the lines that follow give the jet-veto efficiencies as a function of pt
#         pt            matched eff      resummed eff     fixed-order eff
   2.00000000E+001   4.06632124E-001   5.45199021E-001   3.54033455E-001
   2.50000000E+001   4.88402343E-001   6.17292328E-001   4.61286580E-001
   3.00000000E+001   5.57086396E-001   6.59684290E-001   5.43462220E-001
   3.50000000E+001   6.15341847E-001   6.82751987E-001   6.08508831E-001
   4.00000000E+001   6.64711307E-001   6.94868788E-001   6.61203589E-001
   4.50000000E+001   7.06277799E-001   7.01272193E-001   7.04404447E-001
   5.00000000E+001   7.41540635E-001   7.04760155E-001   7.40494892E-001
   5.50000000E+001   7.71499715E-001   7.06736402E-001   7.70889733E-001
   6.00000000E+001   7.97244607E-001   7.07902231E-001   7.96874542E-001
   6.50000000E+001   8.19439589E-001   7.08616511E-001   8.19206785E-001
   7.00000000E+001   8.38560567E-001   7.09069390E-001   8.38409214E-001
   7.50000000E+001   8.55331587E-001   7.09365444E-001   8.55230292E-001
   8.00000000E+001   8.70031981E-001   7.09564310E-001   8.69962422E-001
   8.50000000E+001   8.82872589E-001   7.09701159E-001   8.82823656E-001
   9.00000000E+001   8.94244340E-001   7.09797381E-001   8.94209219E-001
   9.50000000E+001   9.04255704E-001   7.09866355E-001   9.04230001E-001
   1.00000000E+002   9.13187059E-001   7.09916662E-001   9.13167919E-001
   1.05000000E+002   9.21149027E-001   7.09953934E-001   9.21134551E-001
   1.10000000E+002   9.28182567E-001   7.09981943E-001   9.28171457E-001
   1.15000000E+002   9.34562272E-001   7.10003265E-001   9.34553636E-001
   1.20000000E+002   9.40251012E-001   7.10019689E-001   9.40244216E-001
   1.25000000E+002   9.45394874E-001   7.10032480E-001   9.45389469E-001
   1.30000000E+002   9.50046890E-001   7.10042540E-001   9.50042546E-001
   1.35000000E+002   9.54231942E-001   7.10050526E-001   9.54228420E-001
   1.40000000E+002   9.58016050E-001   7.10056920E-001   9.58013167E-001
   1.45000000E+002   9.61494997E-001   7.10062081E-001   9.61492620E-001
   1.50000000E+002   9.64597553E-001   7.10066276E-001   9.64595577E-001
   1.55000000E+002   9.67466586E-001   7.10069711E-001   9.67464933E-001
   1.60000000E+002   9.70086308E-001   7.10072540E-001   9.70084916E-001
   1.65000000E+002   9.72456827E-001   7.10074886E-001   9.72455647E-001
   1.70000000E+002   9.74635365E-001   7.10076842E-001   9.74634361E-001
   1.75000000E+002   9.76593205E-001   7.10078481E-001   9.76592344E-001
   1.80000000E+002   9.78409321E-001   7.10079862E-001   9.78408580E-001
   1.85000000E+002   9.80056497E-001   7.10081031E-001   9.80055856E-001
   1.90000000E+002   9.81582380E-001   7.10082025E-001   9.81581823E-001
   1.95000000E+002   9.82993290E-001   7.10082873E-001   9.82992805E-001
   2.00000000E+002   9.84271410E-001   7.10083601E-001   9.84270986E-001
   2.05000000E+002   9.85465000E-001   7.10084227E-001   9.85464627E-001
   2.10000000E+002   9.86543663E-001   7.10084768E-001   9.86543334E-001
   2.15000000E+002   9.87527691E-001   7.10085237E-001   9.87527400E-001
   2.20000000E+002   9.88451161E-001   7.10085644E-001   9.88450903E-001
   2.25000000E+002   9.89295839E-001   7.10086000E-001   9.89295609E-001
   2.30000000E+002   9.90078030E-001   7.10086312E-001   9.90077825E-001
   2.35000000E+002   9.90811835E-001   7.10086585E-001   9.90811652E-001
   2.40000000E+002   9.91470056E-001   7.10086825E-001   9.91469891E-001
   2.45000000E+002   9.92089367E-001   7.10087038E-001   9.92089219E-001
