# ./jetvheto -in n3lo-fixed-order/H125-LHC13-R04-mb-475-mt-1725-xmur025-xmuf050-log.fxd -xQ 0.25 -out benchmarks-n3lo-smallR/H125-LHC13-R04-mb-475-mt-1725-xmur025-xmuf050-xQ025-NNLO+NNLLa.R0-1.0.res -scheme a -order 2 -ptmax 500.01 -fixed_order 2 -small-r -loop-mass t+b -R0 1.0
# process = H    
# collider = pp   
# rts =  13000.000
# M   =    125.000
# muR =     31.250
# muF =     62.500
# Q   =     31.250
# p   =      5.000
# include_c1_squared =   F
# loop_mass  = t+b 
# alphas(MZ) =    0.11800
# alphas(M) =    0.11264
# alphas(muR) =    0.14091
# Rjet =      0.400
# order = NNLL
# pdf name and set = PDF4LHC15_nnlo_mc.LHgrid,    0
# matching scheme = a
# total cross sections [nb] at LO, NLOdiff, NNLOdiff, N3LOdiff =     0.017683    0.024805    0.005009   -0.002663
#----------------------------------------------------------------------
# the lines that follow give the jet-veto efficiencies as a function of pt
#         pt            matched eff      resummed eff     fixed-order eff
   2.00000000E+001   4.26169364E-001   4.25085904E-001   4.14085672E-001
   2.50000000E+001   5.12105544E-001   4.83694845E-001   5.05029093E-001
   3.00000000E+001   5.81948936E-001   5.18310189E-001   5.77905321E-001
   3.50000000E+001   6.39314711E-001   5.37208930E-001   6.37010945E-001
   4.00000000E+001   6.86896115E-001   5.47156705E-001   6.85569312E-001
   4.50000000E+001   7.26983540E-001   5.52420095E-001   7.26196393E-001
   5.00000000E+001   7.60939109E-001   5.55289069E-001   7.60456629E-001
   5.50000000E+001   7.89776574E-001   5.56915253E-001   7.89469884E-001
   6.00000000E+001   8.14483068E-001   5.57874799E-001   8.14281031E-001
   6.50000000E+001   8.35776497E-001   5.58462777E-001   8.35639279E-001
   7.00000000E+001   8.54347607E-001   5.58835609E-001   8.54251825E-001
   7.50000000E+001   8.70343978E-001   5.59079350E-001   8.70275272E-001
   8.00000000E+001   8.84412191E-001   5.59243082E-001   8.84361842E-001
   8.50000000E+001   8.96803848E-001   5.59355756E-001   8.96766205E-001
   9.00000000E+001   9.07666070E-001   5.59434982E-001   9.07637475E-001
   9.50000000E+001   9.17164559E-001   5.59491774E-001   9.17142453E-001
   1.00000000E+002   9.25650171E-001   5.59533196E-001   9.25632859E-001
   1.05000000E+002   9.33125241E-001   5.59563885E-001   9.33111490E-001
   1.10000000E+002   9.39772737E-001   5.59586948E-001   9.39761709E-001
   1.15000000E+002   9.45721341E-001   5.59604504E-001   9.45712400E-001
   1.20000000E+002   9.51029107E-001   5.59618028E-001   9.51021795E-001
   1.25000000E+002   9.55832892E-001   5.59628560E-001   9.55826863E-001
   1.30000000E+002   9.60067415E-001   5.59636843E-001   9.60062402E-001
   1.35000000E+002   9.63902314E-001   5.59643419E-001   9.63898119E-001
   1.40000000E+002   9.67371167E-001   5.59648684E-001   9.67367633E-001
   1.45000000E+002   9.70472165E-001   5.59652933E-001   9.70469170E-001
   1.50000000E+002   9.73311005E-001   5.59656388E-001   9.73308453E-001
   1.55000000E+002   9.75862664E-001   5.59659216E-001   9.75860478E-001
   1.60000000E+002   9.78167667E-001   5.59661546E-001   9.78165785E-001
   1.65000000E+002   9.80234512E-001   5.59663478E-001   9.80232885E-001
   1.70000000E+002   9.82120916E-001   5.59665088E-001   9.82119504E-001
   1.75000000E+002   9.83863891E-001   5.59666438E-001   9.83862660E-001
   1.80000000E+002   9.85401482E-001   5.59667575E-001   9.85400406E-001
   1.85000000E+002   9.86826421E-001   5.59668537E-001   9.86825476E-001
   1.90000000E+002   9.88124043E-001   5.59669355E-001   9.88123211E-001
   1.95000000E+002   9.89292760E-001   5.59670054E-001   9.89292025E-001
   2.00000000E+002   9.90353273E-001   5.59670653E-001   9.90352622E-001
   2.05000000E+002   9.91332624E-001   5.59671169E-001   9.91332044E-001
   2.10000000E+002   9.92193497E-001   5.59671614E-001   9.92192981E-001
   2.15000000E+002   9.93016003E-001   5.59672000E-001   9.93015542E-001
   2.20000000E+002   9.93767089E-001   5.59672336E-001   9.93766676E-001
   2.25000000E+002   9.94410068E-001   5.59672629E-001   9.94409698E-001
   2.30000000E+002   9.95059775E-001   5.59672885E-001   9.95059442E-001
   2.35000000E+002   9.95608283E-001   5.59673110E-001   9.95607983E-001
   2.40000000E+002   9.96122070E-001   5.59673308E-001   9.96121799E-001
   2.45000000E+002   9.96585198E-001   5.59673483E-001   9.96584953E-001
