# ./jetvheto -in n3lo-fixed-order/H125-LHC13-R04-heft-xmur100-xmuf100-log.fxd -xQ 0.75 -out benchmarks-n3lo-smallR/H125-LHC13-R04-heft-xmur100-xmuf100-xQ075-NNLO+NNLLa.R0-1.0.res -scheme a -order 2 -ptmax 500.01 -fixed_order 2 -small-r -R0 1.0
# process = H    
# collider = pp   
# rts =  13000.000
# M   =    125.000
# muR =    125.000
# muF =    125.000
# Q   =     93.750
# p   =      5.000
# include_c1_squared =   F
# loop_mass  = none
# alphas(MZ) =    0.11800
# alphas(M) =    0.11264
# alphas(muR) =    0.11264
# Rjet =      0.400
# order = NNLL
# pdf name and set = PDF4LHC15_nnlo_mc.LHgrid,    0
# matching scheme = a
# total cross sections [nb] at LO, NLOdiff, NNLOdiff, N3LOdiff =     0.012945    0.016716    0.010146    0.003834
#----------------------------------------------------------------------
# the lines that follow give the jet-veto efficiencies as a function of pt
#         pt            matched eff      resummed eff     fixed-order eff
   2.00000000E+001   5.05572354E-001   5.45876750E-001   5.03121755E-001
   2.50000000E+001   5.96014899E-001   6.30590910E-001   5.84489186E-001
   3.00000000E+001   6.66285841E-001   6.90632251E-001   6.47024325E-001
   3.50000000E+001   7.21296286E-001   7.32861509E-001   6.96432698E-001
   4.00000000E+001   7.64913082E-001   7.62143886E-001   7.36537087E-001
   4.50000000E+001   7.99603890E-001   7.81938183E-001   7.69498888E-001
   5.00000000E+001   8.27451737E-001   7.94725879E-001   7.97057559E-001
   5.50000000E+001   8.49869117E-001   8.02345207E-001   8.20296043E-001
   6.00000000E+001   8.68126095E-001   8.06190903E-001   8.40179538E-001
   6.50000000E+001   8.83092625E-001   8.07346294E-001   8.57311575E-001
   7.00000000E+001   8.95368258E-001   8.06661670E-001   8.72069843E-001
   7.50000000E+001   9.05646363E-001   8.04801636E-001   8.84956099E-001
   8.00000000E+001   9.14339705E-001   8.02277985E-001   8.96237121E-001
   8.50000000E+001   9.21744647E-001   7.99469908E-001   9.06102675E-001
   9.00000000E+001   9.28264944E-001   7.96642963E-001   9.14880120E-001
   9.50000000E+001   9.33970611E-001   7.93967186E-001   9.22604114E-001
   1.00000000E+002   9.39074527E-001   7.91538025E-001   9.29473021E-001
   1.05000000E+002   9.43686856E-001   7.89396662E-001   9.35603161E-001
   1.10000000E+002   9.47847614E-001   7.87548075E-001   9.41053390E-001
   1.15000000E+002   9.51685531E-001   7.85975586E-001   9.45975962E-001
   1.20000000E+002   9.55183001E-001   7.84651270E-001   9.50380922E-001
   1.25000000E+002   9.58400069E-001   7.83543145E-001   9.54354081E-001
   1.30000000E+002   9.61351015E-001   7.82619401E-001   9.57933958E-001
   1.35000000E+002   9.64090156E-001   7.81850676E-001   9.61195880E-001
   1.40000000E+002   9.66569287E-001   7.81211067E-001   9.64110237E-001
   1.45000000E+002   9.68907593E-001   7.80678373E-001   9.66811003E-001
   1.50000000E+002   9.71010269E-001   7.80233922E-001   9.69216654E-001
   1.55000000E+002   9.72965127E-001   7.79862207E-001   9.71425199E-001
   1.60000000E+002   9.74785957E-001   7.79550447E-001   9.73459094E-001
   1.65000000E+002   9.76449110E-001   7.79288158E-001   9.75301855E-001
   1.70000000E+002   9.78006019E-001   7.79066767E-001   9.77010596E-001
   1.75000000E+002   9.79420900E-001   7.78879262E-001   9.78554343E-001
   1.80000000E+002   9.80747570E-001   7.78719913E-001   9.79990696E-001
   1.85000000E+002   9.81959584E-001   7.78584025E-001   9.81296426E-001
   1.90000000E+002   9.83086768E-001   7.78467750E-001   9.82503927E-001
   1.95000000E+002   9.84152079E-001   7.78367923E-001   9.83638287E-001
   2.00000000E+002   9.85129418E-001   7.78281937E-001   9.84675207E-001
   2.05000000E+002   9.86041739E-001   7.78207634E-001   9.85639085E-001
   2.10000000E+002   9.86880911E-001   7.78143227E-001   9.86523019E-001
   2.15000000E+002   9.87649895E-001   7.78087229E-001   9.87330981E-001
   2.20000000E+002   9.88377109E-001   7.78038398E-001   9.88092219E-001
   2.25000000E+002   9.89050081E-001   7.77995697E-001   9.88794983E-001
   2.30000000E+002   9.89680007E-001   7.77958253E-001   9.89451061E-001
   2.35000000E+002   9.90281738E-001   7.77925332E-001   9.90075806E-001
   2.40000000E+002   9.90826473E-001   7.77896312E-001   9.90640855E-001
   2.45000000E+002   9.91342608E-001   7.77870669E-001   9.91174955E-001
