# ./jetvheto -in n3lo-fixed-order/H125-LHC13-R04-heft-xmur100-xmuf100-log.fxd -xQ 0.25 -out benchmarks-n3lo-smallR/H125-LHC13-R04-heft-xmur100-xmuf100-xQ025-NNLO+NNLLa.R0-2.0.res -scheme a -order 2 -ptmax 500.01 -fixed_order 2 -small-r -R0 2.0
# process = H    
# collider = pp   
# rts =  13000.000
# M   =    125.000
# muR =    125.000
# muF =    125.000
# Q   =     31.250
# p   =      5.000
# include_c1_squared =   F
# loop_mass  = none
# alphas(MZ) =    0.11800
# alphas(M) =    0.11264
# alphas(muR) =    0.11264
# Rjet =      0.400
# order = NNLL
# pdf name and set = PDF4LHC15_nnlo_mc.LHgrid,    0
# matching scheme = a
# total cross sections [nb] at LO, NLOdiff, NNLOdiff, N3LOdiff =     0.012945    0.016716    0.010146    0.003834
#----------------------------------------------------------------------
# the lines that follow give the jet-veto efficiencies as a function of pt
#         pt            matched eff      resummed eff     fixed-order eff
   2.00000000E+001   4.90610028E-001   5.38145023E-001   5.03121755E-001
   2.50000000E+001   5.75716335E-001   6.09325295E-001   5.84489186E-001
   3.00000000E+001   6.41470385E-001   6.51182412E-001   6.47024325E-001
   3.50000000E+001   6.93008323E-001   6.73959853E-001   6.96432698E-001
   4.00000000E+001   7.34404332E-001   6.85924452E-001   7.36537087E-001
   4.50000000E+001   7.68140586E-001   6.92247503E-001   7.69498888E-001
   5.00000000E+001   7.96169031E-001   6.95691722E-001   7.97057559E-001
   5.50000000E+001   8.19699412E-001   6.97643192E-001   8.20296043E-001
   6.00000000E+001   8.39768502E-001   6.98794407E-001   8.40179538E-001
   6.50000000E+001   8.57021890E-001   6.99499735E-001   8.57311575E-001
   7.00000000E+001   8.71861488E-001   6.99946938E-001   8.72069843E-001
   7.50000000E+001   8.84803419E-001   7.00239283E-001   8.84956099E-001
   8.00000000E+001   8.96123327E-001   7.00435657E-001   8.96237121E-001
   8.50000000E+001   9.06016599E-001   7.00570790E-001   9.06102675E-001
   9.00000000E+001   9.14814079E-001   7.00665807E-001   9.14880120E-001
   9.50000000E+001   9.22552817E-001   7.00733917E-001   9.22604114E-001
   1.00000000E+002   9.29432718E-001   7.00783594E-001   9.29473021E-001
   1.05000000E+002   9.35571160E-001   7.00820398E-001   9.35603161E-001
   1.10000000E+002   9.41027739E-001   7.00848056E-001   9.41053390E-001
   1.15000000E+002   9.45955213E-001   7.00869111E-001   9.45975962E-001
   1.20000000E+002   9.50364003E-001   7.00885330E-001   9.50380922E-001
   1.25000000E+002   9.54340177E-001   7.00897960E-001   9.54354081E-001
   1.30000000E+002   9.57922451E-001   7.00907894E-001   9.57933958E-001
   1.35000000E+002   9.61186291E-001   7.00915780E-001   9.61195880E-001
   1.40000000E+002   9.64102200E-001   7.00922094E-001   9.64110237E-001
   1.45000000E+002   9.66804226E-001   7.00927190E-001   9.66811003E-001
   1.50000000E+002   9.69210910E-001   7.00931332E-001   9.69216654E-001
   1.55000000E+002   9.71420305E-001   7.00934724E-001   9.71425199E-001
   1.60000000E+002   9.73454903E-001   7.00937518E-001   9.73459094E-001
   1.65000000E+002   9.75298251E-001   7.00939835E-001   9.75301855E-001
   1.70000000E+002   9.77007483E-001   7.00941766E-001   9.77010596E-001
   1.75000000E+002   9.78551643E-001   7.00943385E-001   9.78554343E-001
   1.80000000E+002   9.79988345E-001   7.00944748E-001   9.79990696E-001
   1.85000000E+002   9.81294372E-001   7.00945903E-001   9.81296426E-001
   1.90000000E+002   9.82502126E-001   7.00946884E-001   9.82503927E-001
   1.95000000E+002   9.83636702E-001   7.00947722E-001   9.83638287E-001
   2.00000000E+002   9.84673808E-001   7.00948440E-001   9.84675207E-001
   2.05000000E+002   9.85637848E-001   7.00949059E-001   9.85639085E-001
   2.10000000E+002   9.86521921E-001   7.00949593E-001   9.86523019E-001
   2.15000000E+002   9.87330004E-001   7.00950056E-001   9.87330981E-001
   2.20000000E+002   9.88091347E-001   7.00950458E-001   9.88092219E-001
   2.25000000E+002   9.88794202E-001   7.00950810E-001   9.88794983E-001
   2.30000000E+002   9.89450361E-001   7.00951117E-001   9.89451061E-001
   2.35000000E+002   9.90075177E-001   7.00951387E-001   9.90075806E-001
   2.40000000E+002   9.90640288E-001   7.00951624E-001   9.90640855E-001
   2.45000000E+002   9.91174444E-001   7.00951834E-001   9.91174955E-001
