# ./jetvheto -in n3lo-fixed-order/H125-LHC13-R04-heft-xmur100-xmuf100-log.fxd -xQ 0.333 -out benchmarks-n3lo-smallR/H125-LHC13-R04-heft-xmur100-xmuf100-xQ033-NNLO+NNLLb.R0-2.0.res -scheme b -order 2 -ptmax 500.01 -fixed_order 2 -small-r -R0 2.0
# process = H    
# collider = pp   
# rts =  13000.000
# M   =    125.000
# muR =    125.000
# muF =    125.000
# Q   =     41.625
# p   =      5.000
# include_c1_squared =   F
# loop_mass  = none
# alphas(MZ) =    0.11800
# alphas(M) =    0.11264
# alphas(muR) =    0.11264
# Rjet =      0.400
# order = NNLL
# pdf name and set = PDF4LHC15_nnlo_mc.LHgrid,    0
# matching scheme = b
# total cross sections [nb] at LO, NLOdiff, NNLOdiff, N3LOdiff =     0.012945    0.016716    0.010146    0.003834
#----------------------------------------------------------------------
# the lines that follow give the jet-veto efficiencies as a function of pt
#         pt            matched eff      resummed eff     fixed-order eff
   2.00000000E+001   4.05582070E-001   5.24944016E-001   3.33152974E-001
   2.50000000E+001   4.86516892E-001   6.02721612E-001   4.42354030E-001
   3.00000000E+001   5.53301769E-001   6.55158036E-001   5.26280770E-001
   3.50000000E+001   6.09077674E-001   6.89043378E-001   5.92590428E-001
   4.00000000E+001   6.56460268E-001   7.10029708E-001   6.46413459E-001
   4.50000000E+001   6.96817300E-001   7.22648029E-001   6.90650611E-001
   5.00000000E+001   7.31480797E-001   7.30160307E-001   7.27636368E-001
   5.50000000E+001   7.61274181E-001   7.34667938E-001   7.58824117E-001
   6.00000000E+001   7.87108797E-001   7.37424954E-001   7.85509225E-001
   6.50000000E+001   8.09572852E-001   7.39153164E-001   8.08501674E-001
   7.00000000E+001   8.29043641E-001   7.40265102E-001   8.28308351E-001
   7.50000000E+001   8.46119123E-001   7.40999015E-001   8.45602652E-001
   8.00000000E+001   8.61113097E-001   7.41495185E-001   8.60742611E-001
   8.50000000E+001   8.74253975E-001   7.41838129E-001   8.73982907E-001
   9.00000000E+001   8.85964647E-001   7.42080008E-001   8.85762882E-001
   9.50000000E+001   8.96281681E-001   7.42253772E-001   8.96129047E-001
   1.00000000E+002   9.05464780E-001   7.42380710E-001   9.05347624E-001
   1.05000000E+002   9.13665838E-001   7.42474866E-001   9.13574722E-001
   1.10000000E+002   9.20961064E-001   7.42545684E-001   9.20889329E-001
   1.15000000E+002   9.27552870E-001   7.42599630E-001   9.27495781E-001
   1.20000000E+002   9.33453464E-001   7.42641207E-001   9.33407561E-001
   1.25000000E+002   9.38777077E-001   7.42673597E-001   9.38739831E-001
   1.30000000E+002   9.43574769E-001   7.42699081E-001   9.43544289E-001
   1.35000000E+002   9.47947165E-001   7.42719315E-001   9.47922026E-001
   1.40000000E+002   9.51854197E-001   7.42735520E-001   9.51833307E-001
   1.45000000E+002   9.55475404E-001   7.42748599E-001   9.55457933E-001
   1.50000000E+002   9.58701203E-001   7.42759234E-001   9.58686494E-001
   1.55000000E+002   9.61662978E-001   7.42767942E-001   9.61650523E-001
   1.60000000E+002   9.64390761E-001   7.42775117E-001   9.64380158E-001
   1.65000000E+002   9.66862353E-001   7.42781065E-001   9.66853279E-001
   1.70000000E+002   9.69154337E-001   7.42786024E-001   9.69146535E-001
   1.75000000E+002   9.71225096E-001   7.42790181E-001   9.71218357E-001
   1.80000000E+002   9.73151893E-001   7.42793683E-001   9.73146048E-001
   1.85000000E+002   9.74903525E-001   7.42796647E-001   9.74898433E-001
   1.90000000E+002   9.76523438E-001   7.42799167E-001   9.76518987E-001
   1.95000000E+002   9.78045287E-001   7.42801319E-001   9.78041382E-001
   2.00000000E+002   9.79436442E-001   7.42803164E-001   9.79433004E-001
   2.05000000E+002   9.80729636E-001   7.42804752E-001   9.80726600E-001
   2.10000000E+002   9.81915594E-001   7.42806124E-001   9.81912904E-001
   2.15000000E+002   9.82999638E-001   7.42807314E-001   9.82997248E-001
   2.20000000E+002   9.84021014E-001   7.42808348E-001   9.84018885E-001
   2.25000000E+002   9.84963948E-001   7.42809250E-001   9.84962045E-001
   2.30000000E+002   9.85844254E-001   7.42810040E-001   9.85842551E-001
   2.35000000E+002   9.86682534E-001   7.42810733E-001   9.86681004E-001
   2.40000000E+002   9.87440717E-001   7.42811343E-001   9.87439341E-001
   2.45000000E+002   9.88157384E-001   7.42811882E-001   9.88156143E-001
