# ./jetvheto -in n3lo-fixed-order/H125-LHC13-R04-mb-0-mt-1725-xmur100-xmuf100-log.fxd -xQ 0.333 -out benchmarks-n3lo-smallR/H125-LHC13-R04-mb-0-mt-1725-xmur100-xmuf100-xQ033-N3LO+NNLLa.R0-2.0.res -scheme a -order 2 -ptmax 500.01 -small-r -fixed_order 3 -loop-mass t -R0 2.0
# process = H    
# collider = pp   
# rts =  13000.000
# M   =    125.000
# muR =    125.000
# muF =    125.000
# Q   =     41.625
# p   =      5.000
# include_c1_squared =   F
# loop_mass  = t   
# alphas(MZ) =    0.11800
# alphas(M) =    0.11264
# alphas(muR) =    0.11264
# Rjet =      0.400
# order = NNLL
# pdf name and set = PDF4LHC15_nnlo_mc.LHgrid,    0
# matching scheme = a
# total cross sections [nb] at LO, NLOdiff, NNLOdiff, N3LOdiff =     0.013801    0.017514    0.010146    0.003834
#----------------------------------------------------------------------
# the lines that follow give the jet-veto efficiencies as a function of pt
#         pt            matched eff      resummed eff     fixed-order eff
   2.00000000E+001   4.70030026E-001   5.31740696E-001   4.70549319E-001
   2.50000000E+001   5.54455129E-001   6.10506095E-001   5.55098689E-001
   3.00000000E+001   6.24865209E-001   6.63605662E-001   6.25631507E-001
   3.50000000E+001   6.79804081E-001   6.97917857E-001   6.80214785E-001
   4.00000000E+001   7.24158483E-001   7.19167611E-001   7.24327023E-001
   4.50000000E+001   7.60066429E-001   7.31943841E-001   7.60109480E-001
   5.00000000E+001   7.90407793E-001   7.39549909E-001   7.90410150E-001
   5.50000000E+001   8.16271095E-001   7.44113722E-001   8.16264683E-001
   6.00000000E+001   8.38044922E-001   7.46905060E-001   8.38035676E-001
   6.50000000E+001   8.57432171E-001   7.48654768E-001   8.57426760E-001
   7.00000000E+001   8.73748798E-001   7.49780529E-001   8.73744963E-001
   7.50000000E+001   8.87346289E-001   7.50523564E-001   8.87342330E-001
   8.00000000E+001   8.99283673E-001   7.51025898E-001   8.99280183E-001
   8.50000000E+001   9.10048571E-001   7.51373103E-001   9.10046058E-001
   9.00000000E+001   9.19219435E-001   7.51617985E-001   9.19217312E-001
   9.50000000E+001   9.27605268E-001   7.51793908E-001   9.27603719E-001
   1.00000000E+002   9.34625835E-001   7.51922423E-001   9.34624471E-001
   1.05000000E+002   9.40918825E-001   7.52017748E-001   9.40917661E-001
   1.10000000E+002   9.46570095E-001   7.52089445E-001   9.46569141E-001
   1.15000000E+002   9.51648787E-001   7.52144061E-001   9.51647991E-001
   1.20000000E+002   9.56060494E-001   7.52186154E-001   9.56059806E-001
   1.25000000E+002   9.59883933E-001   7.52218946E-001   9.59883314E-001
   1.30000000E+002   9.63712196E-001   7.52244747E-001   9.63711695E-001
   1.35000000E+002   9.67055138E-001   7.52265233E-001   9.67054718E-001
   1.40000000E+002   9.69877657E-001   7.52281638E-001   9.69877285E-001
   1.45000000E+002   9.72571427E-001   7.52294880E-001   9.72571106E-001
   1.50000000E+002   9.74853019E-001   7.52305647E-001   9.74852733E-001
   1.55000000E+002   9.77310674E-001   7.52314463E-001   9.77310440E-001
   1.60000000E+002   9.78984537E-001   7.52321727E-001   9.78984317E-001
   1.65000000E+002   9.80775820E-001   7.52327749E-001   9.80775628E-001
   1.70000000E+002   9.82342483E-001   7.52332770E-001   9.82342311E-001
   1.75000000E+002   9.83862901E-001   7.52336978E-001   9.83862750E-001
   1.80000000E+002   9.85258419E-001   7.52340523E-001   9.85258287E-001
   1.85000000E+002   9.86511831E-001   7.52343524E-001   9.86511714E-001
   1.90000000E+002   9.87391434E-001   7.52346076E-001   9.87391325E-001
   1.95000000E+002   9.88518257E-001   7.52348255E-001   9.88518162E-001
   2.00000000E+002   9.89474442E-001   7.52350123E-001   9.89474357E-001
   2.05000000E+002   9.90297216E-001   7.52351731E-001   9.90297139E-001
   2.10000000E+002   9.91033296E-001   7.52353120E-001   9.91033226E-001
   2.15000000E+002   9.91849427E-001   7.52354324E-001   9.91849366E-001
   2.20000000E+002   9.92440824E-001   7.52355371E-001   9.92440768E-001
   2.25000000E+002   9.93063726E-001   7.52356284E-001   9.93063675E-001
   2.30000000E+002   9.93644328E-001   7.52357084E-001   9.93644282E-001
   2.35000000E+002   9.94181550E-001   7.52357786E-001   9.94181508E-001
   2.40000000E+002   9.94546101E-001   7.52358403E-001   9.94546063E-001
   2.45000000E+002   9.95034559E-001   7.52358948E-001   9.95034525E-001
