# ./jetvheto -in n3lo-fixed-order/H125-LHC13-R04-heft-xmur050-xmuf025-log.fxd -xQ 0.50 -out benchmarks-n3lo-smallR/H125-LHC13-R04-heft-xmur050-xmuf025-xQ050-N3LO+NNLLa.res -scheme a -order 2 -ptmax 500.01 -fixed_order 3
# process = H    
# collider = pp   
# rts =  13000.000
# M   =    125.000
# muR =     62.500
# muF =     31.250
# Q   =     62.500
# p   =      5.000
# include_c1_squared =   F
# loop_mass  = none
# alphas(MZ) =    0.11800
# alphas(M) =    0.11264
# alphas(muR) =    0.12516
# Rjet =      0.400
# order = NNLL
# pdf name and set = PDF4LHC15_nnlo_mc.LHgrid,    0
# matching scheme = a
# total cross sections [nb] at LO, NLOdiff, NNLOdiff, N3LOdiff =     0.013759    0.019772    0.009723    0.001827
#----------------------------------------------------------------------
# the lines that follow give the jet-veto efficiencies as a function of pt
#         pt            matched eff      resummed eff     fixed-order eff
   2.00000000E+001   4.45564072E-001   4.77303155E-001   4.50421662E-001
   2.50000000E+001   5.36758107E-001   5.58994106E-001   5.38581774E-001
   3.00000000E+001   6.08616566E-001   6.17602016E-001   6.07931788E-001
   3.50000000E+001   6.65892333E-001   6.59106038E-001   6.63605119E-001
   4.00000000E+001   7.12568933E-001   6.88020620E-001   7.09554932E-001
   4.50000000E+001   7.51392816E-001   7.07705074E-001   7.48231785E-001
   5.00000000E+001   7.83288322E-001   7.20741516E-001   7.80304570E-001
   5.50000000E+001   8.10950857E-001   7.29143710E-001   8.08347860E-001
   6.00000000E+001   8.33775574E-001   7.34440721E-001   8.31584643E-001
   6.50000000E+001   8.51963608E-001   7.37737236E-001   8.50162676E-001
   7.00000000E+001   8.68957133E-001   7.39785460E-001   8.67519966E-001
   7.50000000E+001   8.83480576E-001   7.41069830E-001   8.82345556E-001
   8.00000000E+001   8.95553847E-001   7.41889630E-001   8.94657674E-001
   8.50000000E+001   9.06681122E-001   7.42424942E-001   9.05975513E-001
   9.00000000E+001   9.16414262E-001   7.42783323E-001   9.15856876E-001
   9.50000000E+001   9.23701915E-001   7.43029334E-001   9.23257619E-001
   1.00000000E+002   9.31698643E-001   7.43202270E-001   9.31344395E-001
   1.05000000E+002   9.37835415E-001   7.43326523E-001   9.37550109E-001
   1.10000000E+002   9.44154460E-001   7.43417574E-001   9.43923805E-001
   1.15000000E+002   9.49554653E-001   7.43485482E-001   9.49366732E-001
   1.20000000E+002   9.53818551E-001   7.43536932E-001   9.53664191E-001
   1.25000000E+002   9.57502888E-001   7.43576462E-001   9.57375307E-001
   1.30000000E+002   9.61327666E-001   7.43607216E-001   9.61221701E-001
   1.35000000E+002   9.64506587E-001   7.43631415E-001   9.64417982E-001
   1.40000000E+002   9.67467870E-001   7.43650650E-001   9.67393410E-001
   1.45000000E+002   9.70201987E-001   7.43666083E-001   9.70139075E-001
   1.50000000E+002   9.72530879E-001   7.43678568E-001   9.72477447E-001
   1.55000000E+002   9.74681575E-001   7.43688749E-001   9.74635981E-001
   1.60000000E+002   9.76941372E-001   7.43697110E-001   9.76902319E-001
   1.65000000E+002   9.78625130E-001   7.43704021E-001   9.78591495E-001
   1.70000000E+002   9.80033535E-001   7.43709769E-001   9.80004443E-001
   1.75000000E+002   9.81739449E-001   7.43714578E-001   9.81714216E-001
   1.80000000E+002   9.82901871E-001   7.43718622E-001   9.82879880E-001
   1.85000000E+002   9.84221258E-001   7.43722041E-001   9.84202042E-001
   1.90000000E+002   9.85281139E-001   7.43724944E-001   9.85264281E-001
   1.95000000E+002   9.86412819E-001   7.43727420E-001   9.86397989E-001
   2.00000000E+002   9.87231069E-001   7.43729541E-001   9.87217976E-001
   2.05000000E+002   9.88050648E-001   7.43731366E-001   9.88039056E-001
   2.10000000E+002   9.88806725E-001   7.43732941E-001   9.88796432E-001
   2.15000000E+002   9.89657745E-001   7.43734305E-001   9.89648586E-001
   2.20000000E+002   9.90273672E-001   7.43735491E-001   9.90265497E-001
   2.25000000E+002   9.90982216E-001   7.43736525E-001   9.90974904E-001
   2.30000000E+002   9.91508187E-001   7.43737430E-001   9.91501630E-001
   2.35000000E+002   9.91919476E-001   7.43738224E-001   9.91913580E-001
   2.40000000E+002   9.92484042E-001   7.43738923E-001   9.92478733E-001
   2.45000000E+002   9.92969227E-001   7.43739539E-001   9.92964436E-001
