# ./jetvheto -in n3lo-fixed-order/H125-LHC13-R04-mb-0-mt-1725-xmur050-xmuf100-log.fxd -xQ 0.0625 -out benchmarks-n3lo-smallR/H125-LHC13-R04-mb-0-mt-1725-xmur050-xmuf100-xQ0625-N3LO+NNLLb.res -scheme b -order 2 -ptmax 500.01 -fixed_order 3 -loop-mass t
# process = H    
# collider = pp   
# rts =  13000.000
# M   =    125.000
# muR =     62.500
# muF =    125.000
# Q   =      7.812
# p   =      5.000
# include_c1_squared =   F
# loop_mass  = t   
# alphas(MZ) =    0.11800
# alphas(M) =    0.11264
# alphas(muR) =    0.12516
# Rjet =      0.400
# order = NNLL
# pdf name and set = PDF4LHC15_nnlo_mc.LHgrid,    0
# matching scheme = b
# total cross sections [nb] at LO, NLOdiff, NNLOdiff, N3LOdiff =     0.016868    0.020591    0.008553    0.000949
#----------------------------------------------------------------------
# the lines that follow give the jet-veto efficiencies as a function of pt
#         pt            matched eff      resummed eff     fixed-order eff
   2.00000000E+001   4.44212661E-001   1.78503449E-001   4.44147613E-001
   2.50000000E+001   5.31105178E-001   1.78880502E-001   5.31088854E-001
   3.00000000E+001   6.07121697E-001   1.78990936E-001   6.07119654E-001
   3.50000000E+001   6.65155294E-001   1.79030864E-001   6.65155664E-001
   4.00000000E+001   7.11953250E-001   1.79047619E-001   7.11953965E-001
   4.50000000E+001   7.49665730E-001   1.79055473E-001   7.49666337E-001
   5.00000000E+001   7.81845685E-001   1.79059484E-001   7.81846163E-001
   5.50000000E+001   8.09508971E-001   1.79061676E-001   8.09509340E-001
   6.00000000E+001   8.32598500E-001   1.79062943E-001   8.32598772E-001
   6.50000000E+001   8.53578875E-001   1.79063710E-001   8.53579085E-001
   7.00000000E+001   8.71029369E-001   1.79064192E-001   8.71029528E-001
   7.50000000E+001   8.85160105E-001   1.79064506E-001   8.85160222E-001
   8.00000000E+001   8.97586332E-001   1.79064716E-001   8.97586419E-001
   8.50000000E+001   9.09015433E-001   1.79064860E-001   9.09015500E-001
   9.00000000E+001   9.18531099E-001   1.79064961E-001   9.18531151E-001
   9.50000000E+001   9.27435684E-001   1.79065034E-001   9.27435725E-001
   1.00000000E+002   9.34616595E-001   1.79065087E-001   9.34616627E-001
   1.05000000E+002   9.41078110E-001   1.79065126E-001   9.41078136E-001
   1.10000000E+002   9.46942929E-001   1.79065155E-001   9.46942949E-001
   1.15000000E+002   9.52185686E-001   1.79065178E-001   9.52185702E-001
   1.20000000E+002   9.56669551E-001   1.79065195E-001   9.56669565E-001
   1.25000000E+002   9.60447862E-001   1.79065208E-001   9.60447873E-001
   1.30000000E+002   9.64485774E-001   1.79065219E-001   9.64485783E-001
   1.35000000E+002   9.67948537E-001   1.79065227E-001   9.67948544E-001
   1.40000000E+002   9.70751961E-001   1.79065234E-001   9.70751967E-001
   1.45000000E+002   9.73490458E-001   1.79065239E-001   9.73490463E-001
   1.50000000E+002   9.75736403E-001   1.79065244E-001   9.75736407E-001
   1.55000000E+002   9.78393867E-001   1.79065247E-001   9.78393871E-001
   1.60000000E+002   9.79868813E-001   1.79065250E-001   9.79868816E-001
   1.65000000E+002   9.81666730E-001   1.79065253E-001   9.81666733E-001
   1.70000000E+002   9.83185660E-001   1.79065255E-001   9.83185663E-001
   1.75000000E+002   9.84740081E-001   1.79065256E-001   9.84740083E-001
   1.80000000E+002   9.86156945E-001   1.79065258E-001   9.86156947E-001
   1.85000000E+002   9.87422852E-001   1.79065259E-001   9.87422854E-001
   1.90000000E+002   9.88126030E-001   1.79065260E-001   9.88126031E-001
   1.95000000E+002   9.89298129E-001   1.79065261E-001   9.89298131E-001
   2.00000000E+002   9.90253523E-001   1.79065262E-001   9.90253524E-001
   2.05000000E+002   9.91028462E-001   1.79065262E-001   9.91028463E-001
   2.10000000E+002   9.91716926E-001   1.79065263E-001   9.91716927E-001
   2.15000000E+002   9.92587367E-001   1.79065263E-001   9.92587368E-001
   2.20000000E+002   9.93112252E-001   1.79065264E-001   9.93112253E-001
   2.25000000E+002   9.93729563E-001   1.79065264E-001   9.93729564E-001
   2.30000000E+002   9.94307692E-001   1.79065265E-001   9.94307692E-001
   2.35000000E+002   9.94836951E-001   1.79065265E-001   9.94836951E-001
   2.40000000E+002   9.95117199E-001   1.79065265E-001   9.95117200E-001
   2.45000000E+002   9.95622905E-001   1.79065265E-001   9.95622905E-001
