# ./jetvheto -in n3lo-fixed-order/H125-LHC13-R04-mb-0-mt-1725-xmur200-xmuf100-log.fxd -xQ 0.5 -out benchmarks-n3lo-smallR/H125-LHC13-R04-mb-0-mt-1725-xmur200-xmuf100-xQ050-NNLO+NNLLb.R0-0.5.res -scheme b -order 2 -ptmax 500.01 -small-r -fixed_order 2 -loop-mass t -R0 0.5
# process = H    
# collider = pp   
# rts =  13000.000
# M   =    125.000
# muR =    250.000
# muF =    125.000
# Q   =     62.500
# p   =      5.000
# include_c1_squared =   F
# loop_mass  = t   
# alphas(MZ) =    0.11800
# alphas(M) =    0.11264
# alphas(muR) =    0.10244
# Rjet =      0.400
# order = NNLL
# pdf name and set = PDF4LHC15_nnlo_mc.LHgrid,    0
# matching scheme = b
# total cross sections [nb] at LO, NLOdiff, NNLOdiff, N3LOdiff =     0.011501    0.015066    0.010526    0.005600
#----------------------------------------------------------------------
# the lines that follow give the jet-veto efficiencies as a function of pt
#         pt            matched eff      resummed eff     fixed-order eff
   2.00000000E+001   4.29079659E-001   5.32580341E-001   3.67201827E-001
   2.50000000E+001   5.14057166E-001   6.19911385E-001   4.73161072E-001
   3.00000000E+001   5.82518088E-001   6.82450334E-001   5.53722917E-001
   3.50000000E+001   6.38460957E-001   7.26694404E-001   6.17253656E-001
   4.00000000E+001   6.84633243E-001   7.57447971E-001   6.68576569E-001
   4.50000000E+001   7.22924998E-001   7.78324321E-001   7.10591480E-001
   5.00000000E+001   7.55186914E-001   7.92105231E-001   7.45672623E-001
   5.50000000E+001   7.82552633E-001   8.00947610E-001   7.75224424E-001
   6.00000000E+001   8.06088550E-001   8.06489730E-001   8.00466992E-001
   6.50000000E+001   8.26467830E-001   8.09915138E-001   8.22168588E-001
   7.00000000E+001   8.44123903E-001   8.12027109E-001   8.40838970E-001
   7.50000000E+001   8.59733006E-001   8.13340659E-001   8.57218355E-001
   8.00000000E+001   8.73503075E-001   8.14172053E-001   8.71570191E-001
   8.50000000E+001   8.85619879E-001   8.14710465E-001   8.84125319E-001
   9.00000000E+001   8.96393416E-001   8.15068159E-001   8.95229677E-001
   9.50000000E+001   9.05934612E-001   8.15312007E-001   9.05021342E-001
   1.00000000E+002   9.14493969E-001   8.15482394E-001   9.13771358E-001
   1.05000000E+002   9.22153940E-001   8.15604188E-001   9.21577501E-001
   1.10000000E+002   9.28946080E-001   8.15693056E-001   9.28482563E-001
   1.15000000E+002   9.35126743E-001   8.15759099E-001   9.34751096E-001
   1.20000000E+002   9.40660563E-001   8.15808988E-001   9.40353848E-001
   1.25000000E+002   9.45672384E-001   8.15847227E-001   9.45420170E-001
   1.30000000E+002   9.50221563E-001   8.15876919E-001   9.50012754E-001
   1.35000000E+002   9.54313275E-001   8.15900243E-001   9.54139308E-001
   1.40000000E+002   9.58038230E-001   8.15918759E-001   9.57892400E-001
   1.45000000E+002   9.61452251E-001   8.15933597E-001   9.61329318E-001
   1.50000000E+002   9.64516557E-001   8.15945592E-001   9.64412364E-001
   1.55000000E+002   9.67354169E-001   8.15955364E-001   9.67265406E-001
   1.60000000E+002   9.69943854E-001   8.15963385E-001   9.69867876E-001
   1.65000000E+002   9.72295059E-001   8.15970012E-001   9.72229728E-001
   1.70000000E+002   9.74454060E-001   8.15975521E-001   9.74397644E-001
   1.75000000E+002   9.76401358E-001   8.15980128E-001   9.76352441E-001
   1.80000000E+002   9.78207248E-001   8.15984002E-001   9.78164670E-001
   1.85000000E+002   9.79850290E-001   8.15987275E-001   9.79813093E-001
   1.90000000E+002   9.81372364E-001   8.15990054E-001   9.81339755E-001
   1.95000000E+002   9.82777035E-001   8.15992424E-001   9.82748354E-001
   2.00000000E+002   9.84054341E-001   8.15994454E-001   9.84029035E-001
   2.05000000E+002   9.85246477E-001   8.15996199E-001   9.85224081E-001
   2.10000000E+002   9.86326076E-001   8.15997706E-001   9.86306199E-001
   2.15000000E+002   9.87315400E-001   8.15999011E-001   9.87297711E-001
   2.20000000E+002   9.88240399E-001   8.16000146E-001   9.88224615E-001
   2.25000000E+002   9.89088477E-001   8.16001135E-001   9.89074358E-001
   2.30000000E+002   9.89874547E-001   8.16002000E-001   9.89861887E-001
   2.35000000E+002   9.90609709E-001   8.16002760E-001   9.90598331E-001
   2.40000000E+002   9.91273296E-001   8.16003428E-001   9.91263048E-001
   2.45000000E+002   9.91895863E-001   8.16004017E-001   9.91886612E-001
