# ./jetvheto -in n3lo-fixed-order/H125-LHC13-R04-heft-xmur050-xmuf050-log.fxd -xQ 0.75 -out benchmarks-n3lo-smallR/H125-LHC13-R04-heft-xmur050-xmuf050-xQ075-N3LO+NNLLa.R0-0.5.res -scheme a -order 2 -ptmax 500.01 -fixed_order 3 -small-r -R0 0.5
# process = H    
# collider = pp   
# rts =  13000.000
# M   =    125.000
# muR =     62.500
# muF =     62.500
# Q   =     93.750
# p   =      5.000
# include_c1_squared =   F
# loop_mass  = none
# alphas(MZ) =    0.11800
# alphas(M) =    0.11264
# alphas(muR) =    0.12516
# Rjet =      0.400
# order = NNLL
# pdf name and set = PDF4LHC15_nnlo_mc.LHgrid,    0
# matching scheme = a
# total cross sections [nb] at LO, NLOdiff, NNLOdiff, N3LOdiff =     0.015055    0.019611    0.008998    0.001413
#----------------------------------------------------------------------
# the lines that follow give the jet-veto efficiencies as a function of pt
#         pt            matched eff      resummed eff     fixed-order eff
   2.00000000E+001   4.68168413E-001   5.36458926E-001   4.50065620E-001
   2.50000000E+001   5.54556849E-001   6.17908110E-001   5.35117843E-001
   3.00000000E+001   6.26964627E-001   6.75034807E-001   6.07875407E-001
   3.50000000E+001   6.84068946E-001   7.14790585E-001   6.65471707E-001
   4.00000000E+001   7.28049370E-001   7.42010655E-001   7.10255567E-001
   4.50000000E+001   7.66064179E-001   7.60100974E-001   7.49462038E-001
   5.00000000E+001   7.96104963E-001   7.71502100E-001   7.80889863E-001
   5.50000000E+001   8.21999346E-001   7.78013660E-001   8.08255100E-001
   6.00000000E+001   8.42872978E-001   7.80982718E-001   8.30655804E-001
   6.50000000E+001   8.62138347E-001   7.81449201E-001   8.51359759E-001
   7.00000000E+001   8.76736449E-001   7.80227406E-001   8.67401068E-001
   7.50000000E+001   8.89735245E-001   7.77953264E-001   8.81721105E-001
   8.00000000E+001   9.01463486E-001   7.75114741E-001   8.94630807E-001
   8.50000000E+001   9.11861758E-001   7.72070549E-001   9.06075690E-001
   9.00000000E+001   9.21067467E-001   7.69068297E-001   9.16194285E-001
   9.50000000E+001   9.28372263E-001   7.66262465E-001   9.24302841E-001
   1.00000000E+002   9.35368507E-001   7.63736830E-001   9.31969203E-001
   1.05000000E+002   9.40939966E-001   7.61523685E-001   9.38114001E-001
   1.10000000E+002   9.46132385E-001   7.59621388E-001   9.43779750E-001
   1.15000000E+002   9.51067161E-001   7.58008354E-001   9.49102964E-001
   1.20000000E+002   9.55548652E-001   7.56653186E-001   9.53905269E-001
   1.25000000E+002   9.59244217E-001   7.55521298E-001   9.57868349E-001
   1.30000000E+002   9.62488222E-001   7.54579088E-001   9.61333266E-001
   1.35000000E+002   9.65772804E-001   7.53795895E-001   9.64797911E-001
   1.40000000E+002   9.68760116E-001   7.53144844E-001   9.67934219E-001
   1.45000000E+002   9.71325501E-001   7.52603019E-001   9.70623723E-001
   1.50000000E+002   9.73322826E-001   7.52151219E-001   9.72725389E-001
   1.55000000E+002   9.75639910E-001   7.51773541E-001   9.75127782E-001
   1.60000000E+002   9.77743830E-001   7.51456905E-001   9.77303274E-001
   1.65000000E+002   9.79014494E-001   7.51190603E-001   9.78635491E-001
   1.70000000E+002   9.80696134E-001   7.50965885E-001   9.80367872E-001
   1.75000000E+002   9.82275791E-001   7.50775607E-001   9.81990419E-001
   1.80000000E+002   9.83489131E-001   7.50613931E-001   9.83240537E-001
   1.85000000E+002   9.84601469E-001   7.50476082E-001   9.84384183E-001
   1.90000000E+002   9.85755108E-001   7.50358145E-001   9.85564426E-001
   1.95000000E+002   9.86820317E-001   7.50256904E-001   9.86652461E-001
   2.00000000E+002   9.87771838E-001   7.50169708E-001   9.87623667E-001
   2.05000000E+002   9.88542681E-001   7.50094366E-001   9.88411596E-001
   2.10000000E+002   9.89326925E-001   7.50029063E-001   9.89210583E-001
   2.15000000E+002   9.89936683E-001   7.49972289E-001   9.89833220E-001
   2.20000000E+002   9.90801106E-001   7.49922786E-001   9.90708699E-001
   2.25000000E+002   9.91270480E-001   7.49879498E-001   9.91187907E-001
   2.30000000E+002   9.91842564E-001   7.49841541E-001   9.91768546E-001
   2.35000000E+002   9.92279676E-001   7.49808170E-001   9.92213208E-001
   2.40000000E+002   9.92750385E-001   7.49778755E-001   9.92690544E-001
   2.45000000E+002   9.93296805E-001   7.49752763E-001   9.93242783E-001
