# ./jetvheto -in n3lo-fixed-order/H125-LHC13-R04-mb-475-mt-1725-xmur200-xmuf100-log.fxd -xQ 0.5 -out benchmarks-n3lo-smallR/H125-LHC13-R04-mb-475-mt-1725-xmur200-xmuf100-xQ050-N3LO+NNLLa.res -scheme a -order 2 -ptmax 500.01 -fixed_order 3 -loop-mass t+b
# process = H    
# collider = pp   
# rts =  13000.000
# M   =    125.000
# muR =    250.000
# muF =    125.000
# Q   =     62.500
# p   =      5.000
# include_c1_squared =   F
# loop_mass  = t+b 
# alphas(MZ) =    0.11800
# alphas(M) =    0.11264
# alphas(muR) =    0.10244
# Rjet =      0.400
# order = NNLL
# pdf name and set = PDF4LHC15_nnlo_mc.LHgrid,    0
# matching scheme = a
# total cross sections [nb] at LO, NLOdiff, NNLOdiff, N3LOdiff =     0.010243    0.014468    0.010526    0.005600
#----------------------------------------------------------------------
# the lines that follow give the jet-veto efficiencies as a function of pt
#         pt            matched eff      resummed eff     fixed-order eff
   2.00000000E+001   4.52573940E-001   5.12805767E-001   4.73494745E-001
   2.50000000E+001   5.41417716E-001   5.96923082E-001   5.56567496E-001
   3.00000000E+001   6.14474456E-001   6.57160381E-001   6.24602117E-001
   3.50000000E+001   6.72161366E-001   6.99775458E-001   6.77949159E-001
   4.00000000E+001   7.18475101E-001   7.29396067E-001   7.21153727E-001
   4.50000000E+001   7.55910632E-001   7.49502773E-001   7.56587199E-001
   5.00000000E+001   7.87016209E-001   7.62775180E-001   7.86572074E-001
   5.50000000E+001   8.13079315E-001   7.71290947E-001   8.12114650E-001
   6.00000000E+001   8.34937363E-001   7.76628114E-001   8.33814754E-001
   6.50000000E+001   8.54069645E-001   7.79926675E-001   8.52989485E-001
   7.00000000E+001   8.70270728E-001   7.81960321E-001   8.69317384E-001
   7.50000000E+001   8.83865564E-001   7.83225081E-001   8.83062188E-001
   8.00000000E+001   8.95847184E-001   7.84025544E-001   8.95187770E-001
   8.50000000E+001   9.06547238E-001   7.84543895E-001   9.06013600E-001
   9.00000000E+001   9.15843849E-001   7.84888242E-001   9.15414143E-001
   9.50000000E+001   9.24248210E-001   7.85122980E-001   9.23902665E-001
   1.00000000E+002   9.31418585E-001   7.85286994E-001   9.31140034E-001
   1.05000000E+002   9.37874529E-001   7.85404229E-001   9.37649125E-001
   1.10000000E+002   9.43638733E-001   7.85489767E-001   9.43455481E-001
   1.15000000E+002   9.48838623E-001   7.85553334E-001   9.48688803E-001
   1.20000000E+002   9.53365614E-001   7.85601352E-001   9.53242433E-001
   1.25000000E+002   9.57395712E-001   7.85638156E-001   9.57293828E-001
   1.30000000E+002   9.61275036E-001   7.85666733E-001   9.61190307E-001
   1.35000000E+002   9.64728173E-001   7.85689181E-001   9.64657308E-001
   1.40000000E+002   9.67690376E-001   7.85707001E-001   9.67630788E-001
   1.45000000E+002   9.70497041E-001   7.85721282E-001   9.70446670E-001
   1.50000000E+002   9.72919534E-001   7.85732826E-001   9.72876747E-001
   1.55000000E+002   9.75400366E-001   7.85742231E-001   9.75363852E-001
   1.60000000E+002   9.77252850E-001   7.85749950E-001   9.77221540E-001
   1.65000000E+002   9.79138577E-001   7.85756328E-001   9.79111617E-001
   1.70000000E+002   9.80813309E-001   7.85761630E-001   9.80789999E-001
   1.75000000E+002   9.82404321E-001   7.85766064E-001   9.82384090E-001
   1.80000000E+002   9.83859063E-001   7.85769792E-001   9.83841438E-001
   1.85000000E+002   9.85179448E-001   7.85772942E-001   9.85164039E-001
   1.90000000E+002   9.86200817E-001   7.85775617E-001   9.86187297E-001
   1.95000000E+002   9.87371120E-001   7.85777898E-001   9.87359222E-001
   2.00000000E+002   9.88386503E-001   7.85779851E-001   9.88375999E-001
   2.05000000E+002   9.89281527E-001   7.85781531E-001   9.89272227E-001
   2.10000000E+002   9.90093497E-001   7.85782981E-001   9.90085240E-001
   2.15000000E+002   9.90925382E-001   7.85784237E-001   9.90918031E-001
   2.20000000E+002   9.91589024E-001   7.85785329E-001   9.91582463E-001
   2.25000000E+002   9.92252796E-001   7.85786281E-001   9.92246925E-001
   2.30000000E+002   9.92867615E-001   7.85787114E-001   9.92862349E-001
   2.35000000E+002   9.93437276E-001   7.85787845E-001   9.93432542E-001
   2.40000000E+002   9.93868522E-001   7.85788488E-001   9.93864257E-001
   2.45000000E+002   9.94378122E-001   7.85789055E-001   9.94374272E-001
