# ./jetvheto -in n3lo-fixed-order/H125-LHC13-R04-heft-xmur050-xmuf050-log.fxd -xQ 0.50 -out benchmarks-n3lo-smallR/H125-LHC13-R04-heft-xmur050-xmuf050-xQ050-NNLO+NNLLa.R0-0.5.res -scheme a -order 2 -ptmax 500.01 -fixed_order 2 -small-r -R0 0.5
# process = H    
# collider = pp   
# rts =  13000.000
# M   =    125.000
# muR =     62.500
# muF =     62.500
# Q   =     62.500
# p   =      5.000
# include_c1_squared =   F
# loop_mass  = none
# alphas(MZ) =    0.11800
# alphas(M) =    0.11264
# alphas(muR) =    0.12516
# Rjet =      0.400
# order = NNLL
# pdf name and set = PDF4LHC15_nnlo_mc.LHgrid,    0
# matching scheme = a
# total cross sections [nb] at LO, NLOdiff, NNLOdiff, N3LOdiff =     0.015055    0.019611    0.008998    0.001413
#----------------------------------------------------------------------
# the lines that follow give the jet-veto efficiencies as a function of pt
#         pt            matched eff      resummed eff     fixed-order eff
   2.00000000E+001   4.67146902E-001   4.94216414E-001   4.60803594E-001
   2.50000000E+001   5.54670627E-001   5.73081237E-001   5.46887027E-001
   3.00000000E+001   6.23505242E-001   6.28855698E-001   6.14137214E-001
   3.50000000E+001   6.77949475E-001   6.67815674E-001   6.67697748E-001
   4.00000000E+001   7.21681497E-001   6.94534691E-001   7.11386119E-001
   4.50000000E+001   7.57212899E-001   7.12385181E-001   7.47572136E-001
   5.00000000E+001   7.86477596E-001   7.23940464E-001   7.77943884E-001
   5.50000000E+001   8.10900652E-001   7.31181284E-001   8.03669340E-001
   6.00000000E+001   8.31499307E-001   7.35592819E-001   8.25569926E-001
   6.50000000E+001   8.49218123E-001   7.38228082E-001   8.44466421E-001
   7.00000000E+001   8.64657511E-001   7.39789610E-001   8.60904291E-001
   7.50000000E+001   8.78050370E-001   7.40718595E-001   8.75107581E-001
   8.00000000E+001   8.89885570E-001   7.41279253E-001   8.87583197E-001
   8.50000000E+001   9.00379662E-001   7.41625004E-001   8.98575401E-001
   9.00000000E+001   9.09714038E-001   7.41843982E-001   9.08294278E-001
   9.50000000E+001   9.17955508E-001   7.41986700E-001   9.16831850E-001
   1.00000000E+002   9.25331384E-001   7.42082411E-001   9.24436265E-001
   1.05000000E+002   9.31883037E-001   7.42148375E-001   9.31164894E-001
   1.10000000E+002   9.37788568E-001   7.42194999E-001   9.37208272E-001
   1.15000000E+002   9.43067685E-001   7.42228718E-001   9.42595447E-001
   1.20000000E+002   9.47838315E-001   7.42253609E-001   9.47451332E-001
   1.25000000E+002   9.52145924E-001   7.42272321E-001   9.51826691E-001
   1.30000000E+002   9.56005021E-001   7.42286617E-001   9.55739978E-001
   1.35000000E+002   9.59521543E-001   7.42297697E-001   9.59300155E-001
   1.40000000E+002   9.62711154E-001   7.42306394E-001   9.62525156E-001
   1.45000000E+002   9.65573459E-001   7.42313298E-001   9.65416341E-001
   1.50000000E+002   9.68206868E-001   7.42318837E-001   9.68073453E-001
   1.55000000E+002   9.70583409E-001   7.42323319E-001   9.70469565E-001
   1.60000000E+002   9.72770555E-001   7.42326978E-001   9.72672954E-001
   1.65000000E+002   9.74743659E-001   7.42329988E-001   9.74659615E-001
   1.70000000E+002   9.76570869E-001   7.42332480E-001   9.76498194E-001
   1.75000000E+002   9.78256092E-001   7.42334557E-001   9.78193000E-001
   1.80000000E+002   9.79778700E-001   7.42336299E-001   9.79723719E-001
   1.85000000E+002   9.81184344E-001   7.42337767E-001   9.81136260E-001
   1.90000000E+002   9.82481086E-001   7.42339011E-001   9.82438890E-001
   1.95000000E+002   9.83662742E-001   7.42340070E-001   9.83625593E-001
   2.00000000E+002   9.84753499E-001   7.42340976E-001   9.84720691E-001
   2.05000000E+002   9.85772411E-001   7.42341754E-001   9.85743353E-001
   2.10000000E+002   9.86698528E-001   7.42342425E-001   9.86672717E-001
   2.15000000E+002   9.87568029E-001   7.42343005E-001   9.87545040E-001
   2.20000000E+002   9.88373225E-001   7.42343509E-001   9.88352698E-001
   2.25000000E+002   9.89095214E-001   7.42343949E-001   9.89076840E-001
   2.30000000E+002   9.89808104E-001   7.42344333E-001   9.89791617E-001
   2.35000000E+002   9.90436663E-001   7.42344669E-001   9.90421838E-001
   2.40000000E+002   9.91032369E-001   7.42344966E-001   9.91019008E-001
   2.45000000E+002   9.91586174E-001   7.42345227E-001   9.91574107E-001
