# ./jetvheto -in n3lo-fixed-order/H125-LHC13-R04-mb-0-mt-1725-xmur050-xmuf050-log.fxd -xQ 0.333 -out benchmarks-n3lo-smallR/H125-LHC13-R04-mb-0-mt-1725-xmur050-xmuf050-xQ033-N3LO+NNLLa.R0-1.0.res -scheme a -order 2 -ptmax 500.01 -small-r -fixed_order 3 -loop-mass t -R0 1.0
# process = H    
# collider = pp   
# rts =  13000.000
# M   =    125.000
# muR =     62.500
# muF =     62.500
# Q   =     41.625
# p   =      5.000
# include_c1_squared =   F
# loop_mass  = t   
# alphas(MZ) =    0.11800
# alphas(M) =    0.11264
# alphas(muR) =    0.12516
# Rjet =      0.400
# order = NNLL
# pdf name and set = PDF4LHC15_nnlo_mc.LHgrid,    0
# matching scheme = a
# total cross sections [nb] at LO, NLOdiff, NNLOdiff, N3LOdiff =     0.015885    0.020561    0.008998    0.001413
#----------------------------------------------------------------------
# the lines that follow give the jet-veto efficiencies as a function of pt
#         pt            matched eff      resummed eff     fixed-order eff
   2.00000000E+001   4.59365190E-001   4.90614034E-001   4.58478332E-001
   2.50000000E+001   5.45210088E-001   5.66897053E-001   5.43713081E-001
   3.00000000E+001   6.17145941E-001   6.18604791E-001   6.16066731E-001
   3.50000000E+001   6.74396263E-001   6.52167005E-001   6.73487735E-001
   4.00000000E+001   7.18888063E-001   6.73040542E-001   7.18067162E-001
   4.50000000E+001   7.57532441E-001   6.85637297E-001   7.56928051E-001
   5.00000000E+001   7.88742856E-001   6.93157949E-001   7.88284226E-001
   5.50000000E+001   8.15541148E-001   6.97679642E-001   8.15210520E-001
   6.00000000E+001   8.37677228E-001   7.00448969E-001   8.37433297E-001
   6.50000000E+001   8.58095105E-001   7.02186520E-001   8.57921417E-001
   7.00000000E+001   8.73910545E-001   7.03305169E-001   8.73778810E-001
   7.50000000E+001   8.88023962E-001   7.04043826E-001   8.87924776E-001
   8.00000000E+001   9.00745858E-001   7.04543348E-001   9.00670973E-001
   8.50000000E+001   9.12027105E-001   7.04888679E-001   9.11969998E-001
   9.00000000E+001   9.21973766E-001   7.05132275E-001   9.21929710E-001
   9.50000000E+001   9.29942200E-001   7.05307291E-001   9.29907319E-001
   1.00000000E+002   9.37533643E-001   7.05435154E-001   9.37506036E-001
   1.05000000E+002   9.43565792E-001   7.05530000E-001   9.43543485E-001
   1.10000000E+002   9.49103986E-001   7.05601340E-001   9.49085884E-001
   1.15000000E+002   9.54337723E-001   7.05655686E-001   9.54323006E-001
   1.20000000E+002   9.59051820E-001   7.05697573E-001   9.59039767E-001
   1.25000000E+002   9.62982884E-001   7.05730204E-001   9.62972878E-001
   1.30000000E+002   9.66374831E-001   7.05755878E-001   9.66366470E-001
   1.35000000E+002   9.69737912E-001   7.05776264E-001   9.69730923E-001
   1.40000000E+002   9.72802912E-001   7.05792590E-001   9.72797037E-001
   1.45000000E+002   9.75470583E-001   7.05805767E-001   9.75465608E-001
   1.50000000E+002   9.77556560E-001   7.05816482E-001   9.77552300E-001
   1.55000000E+002   9.79917665E-001   7.05825255E-001   9.79914033E-001
   1.60000000E+002   9.82032462E-001   7.05832483E-001   9.82029350E-001
   1.65000000E+002   9.83337705E-001   7.05838476E-001   9.83335000E-001
   1.70000000E+002   9.85015692E-001   7.05843473E-001   9.85013351E-001
   1.75000000E+002   9.86562371E-001   7.05847661E-001   9.86560338E-001
   1.80000000E+002   9.87748339E-001   7.05851189E-001   9.87746562E-001
   1.85000000E+002   9.88838176E-001   7.05854175E-001   9.88836616E-001
   1.90000000E+002   9.89953538E-001   7.05856715E-001   9.89952168E-001
   1.95000000E+002   9.90983278E-001   7.05858883E-001   9.90982071E-001
   2.00000000E+002   9.91893642E-001   7.05860742E-001   9.91892575E-001
   2.05000000E+002   9.92611928E-001   7.05862342E-001   9.92610981E-001
   2.10000000E+002   9.93332503E-001   7.05863724E-001   9.93331661E-001
   2.15000000E+002   9.93892802E-001   7.05864923E-001   9.93892050E-001
   2.20000000E+002   9.94689746E-001   7.05865965E-001   9.94689076E-001
   2.25000000E+002   9.95104041E-001   7.05866874E-001   9.95103439E-001
   2.30000000E+002   9.95613643E-001   7.05867669E-001   9.95613102E-001
   2.35000000E+002   9.95984844E-001   7.05868368E-001   9.95984357E-001
   2.40000000E+002   9.96389452E-001   7.05868982E-001   9.96389013E-001
   2.45000000E+002   9.96862429E-001   7.05869525E-001   9.96862033E-001
