# ./jetvheto -in n3lo-fixed-order/H125-LHC13-R04-mb-475-mt-1725-xmur100-xmuf100-log.fxd -xQ 0.75 -out benchmarks-n3lo-smallR/H125-LHC13-R04-mb-475-mt-1725-xmur100-xmuf100-xQ075-NNLO+NNLLb.R0-2.0.res -scheme b -order 2 -ptmax 500.01 -fixed_order 2 -small-r -loop-mass t+b -R0 2.0
# process = H    
# collider = pp   
# rts =  13000.000
# M   =    125.000
# muR =    125.000
# muF =    125.000
# Q   =     93.750
# p   =      5.000
# include_c1_squared =   F
# loop_mass  = t+b 
# alphas(MZ) =    0.11800
# alphas(M) =    0.11264
# alphas(muR) =    0.11264
# Rjet =      0.400
# order = NNLL
# pdf name and set = PDF4LHC15_nnlo_mc.LHgrid,    0
# matching scheme = b
# total cross sections [nb] at LO, NLOdiff, NNLOdiff, N3LOdiff =     0.012292    0.016994    0.010146    0.003834
#----------------------------------------------------------------------
# the lines that follow give the jet-veto efficiencies as a function of pt
#         pt            matched eff      resummed eff     fixed-order eff
   2.00000000E+001   4.28563839E-001   5.48534237E-001   3.17550639E-001
   2.50000000E+001   5.11986995E-001   6.27077913E-001   4.27790656E-001
   3.00000000E+001   5.80112026E-001   6.82330083E-001   5.12989288E-001
   3.50000000E+001   6.36432848E-001   7.20898051E-001   5.80985186E-001
   4.00000000E+001   6.83045754E-001   7.47396467E-001   6.36189278E-001
   4.50000000E+001   7.22029188E-001   7.65081004E-001   6.81851830E-001
   5.00000000E+001   7.54862028E-001   7.76277082E-001   7.20147070E-001
   5.50000000E+001   7.82550569E-001   7.82703834E-001   7.52478916E-001
   6.00000000E+001   8.06292998E-001   7.85664502E-001   7.80255597E-001
   6.50000000E+001   8.26683817E-001   7.86171177E-001   8.04204225E-001
   7.00000000E+001   8.44236794E-001   7.85018063E-001   8.24914709E-001
   7.50000000E+001   8.59465479E-001   7.82825360E-001   8.42942328E-001
   8.00000000E+001   8.72884359E-001   7.80069711E-001   8.58824881E-001
   8.50000000E+001   8.84589923E-001   7.77102790E-001   8.72688093E-001
   9.00000000E+001   8.95092344E-001   7.74169010E-001   8.85054448E-001
   9.50000000E+001   9.04369242E-001   7.71422584E-001   8.95930965E-001
   1.00000000E+002   9.12684528E-001   7.68947440E-001   9.05604482E-001
   1.05000000E+002   9.20208950E-001   7.66776597E-001   9.14272722E-001
   1.10000000E+002   9.26894049E-001   7.64909398E-001   9.21917006E-001
   1.15000000E+002   9.33026348E-001   7.63325355E-001   9.28847935E-001
   1.20000000E+002   9.38493004E-001   7.61994017E-001   9.34979383E-001
   1.25000000E+002   9.43553667E-001   7.60881749E-001   9.40591281E-001
   1.30000000E+002   9.48135786E-001   7.59955671E-001   9.45631198E-001
   1.35000000E+002   9.52334873E-001   7.59185735E-001   9.50210516E-001
   1.40000000E+002   9.56120701E-001   7.58545600E-001   9.54313076E-001
   1.45000000E+002   9.59651412E-001   7.58012789E-001   9.58107610E-001
   1.50000000E+002   9.62813213E-001   7.57568459E-001   9.61490343E-001
   1.55000000E+002   9.65755526E-001   7.57196992E-001   9.64617823E-001
   1.60000000E+002   9.68428128E-001   7.56885541E-001   9.67446259E-001
   1.65000000E+002   9.70879886E-001   7.56623583E-001   9.70029596E-001
   1.70000000E+002   9.73137942E-001   7.56402520E-001   9.72399079E-001
   1.75000000E+002   9.75182511E-001   7.56215329E-001   9.74538410E-001
   1.80000000E+002   9.77070781E-001   7.56056270E-001   9.76507469E-001
   1.85000000E+002   9.78799492E-001   7.55920648E-001   9.78305324E-001
   1.90000000E+002   9.80394860E-001   7.55804614E-001   9.79960040E-001
   1.95000000E+002   9.81887811E-001   7.55705004E-001   9.81504081E-001
   2.00000000E+002   9.83240863E-001   7.55619210E-001   9.82901295E-001
   2.05000000E+002   9.84500752E-001   7.55545080E-001   9.84199444E-001
   2.10000000E+002   9.85651736E-001   7.55480826E-001   9.85383694E-001
   2.15000000E+002   9.86689787E-001   7.55424964E-001   9.86450755E-001
   2.20000000E+002   9.87671359E-001   7.55376254E-001   9.87457670E-001
   2.25000000E+002   9.88569912E-001   7.55333660E-001   9.88378441E-001
   2.30000000E+002   9.89399376E-001   7.55296311E-001   9.89227429E-001
   2.35000000E+002   9.90176380E-001   7.55263475E-001   9.90021629E-001
   2.40000000E+002   9.90874318E-001   7.55234531E-001   9.90734762E-001
   2.45000000E+002   9.91537146E-001   7.55208955E-001   9.91411035E-001
