# ./jetvheto -in n3lo-fixed-order/H125-LHC13-R04-mb-0-mt-1725-xmur050-xmuf100-log.fxd -xQ 0.0625 -out benchmarks-n3lo-smallR/H125-LHC13-R04-mb-0-mt-1725-xmur050-xmuf100-xQ0625-N3LO+NNLLa.R0-1.5.res -scheme a -order 2 -ptmax 500.01 -small-r -fixed_order 3 -loop-mass t -R0 1.5
# process = H    
# collider = pp   
# rts =  13000.000
# M   =    125.000
# muR =     62.500
# muF =    125.000
# Q   =      7.812
# p   =      5.000
# include_c1_squared =   F
# loop_mass  = t   
# alphas(MZ) =    0.11800
# alphas(M) =    0.11264
# alphas(muR) =    0.12516
# Rjet =      0.400
# order = NNLL
# pdf name and set = PDF4LHC15_nnlo_mc.LHgrid,    0
# matching scheme = a
# total cross sections [nb] at LO, NLOdiff, NNLOdiff, N3LOdiff =     0.016868    0.020591    0.008553    0.000949
#----------------------------------------------------------------------
# the lines that follow give the jet-veto efficiencies as a function of pt
#         pt            matched eff      resummed eff     fixed-order eff
   2.00000000E+001   4.55400064E-001   1.78505539E-001   4.55384304E-001
   2.50000000E+001   5.40568549E-001   1.78881189E-001   5.40568007E-001
   3.00000000E+001   6.15057726E-001   1.78991212E-001   6.15061825E-001
   3.50000000E+001   6.71921477E-001   1.79030992E-001   6.71924624E-001
   4.00000000E+001   7.17774774E-001   1.79047684E-001   7.17776886E-001
   4.50000000E+001   7.54725523E-001   1.79055509E-001   7.54726893E-001
   5.00000000E+001   7.86255273E-001   1.79059505E-001   7.86256196E-001
   5.50000000E+001   8.13359514E-001   1.79061689E-001   8.13360155E-001
   6.00000000E+001   8.35982381E-001   1.79062952E-001   8.35982829E-001
   6.50000000E+001   8.56538693E-001   1.79063715E-001   8.56539019E-001
   7.00000000E+001   8.73636459E-001   1.79064196E-001   8.73636697E-001
   7.50000000E+001   8.87481564E-001   1.79064509E-001   8.87481736E-001
   8.00000000E+001   8.99656607E-001   1.79064718E-001   8.99656735E-001
   8.50000000E+001   9.10854677E-001   1.79064862E-001   9.10854774E-001
   9.00000000E+001   9.20177989E-001   1.79064962E-001   9.20178063E-001
   9.50000000E+001   9.28902571E-001   1.79065035E-001   9.28902629E-001
   1.00000000E+002   9.35938322E-001   1.79065087E-001   9.35938367E-001
   1.05000000E+002   9.42269220E-001   1.79065126E-001   9.42269256E-001
   1.10000000E+002   9.48015482E-001   1.79065156E-001   9.48015510E-001
   1.15000000E+002   9.53152257E-001   1.79065178E-001   9.53152280E-001
   1.20000000E+002   9.57545482E-001   1.79065195E-001   9.57545500E-001
   1.25000000E+002   9.61247413E-001   1.79065208E-001   9.61247428E-001
   1.30000000E+002   9.65203699E-001   1.79065219E-001   9.65203712E-001
   1.35000000E+002   9.68596462E-001   1.79065227E-001   9.68596472E-001
   1.40000000E+002   9.71343215E-001   1.79065234E-001   9.71343224E-001
   1.45000000E+002   9.74026353E-001   1.79065239E-001   9.74026360E-001
   1.50000000E+002   9.76226895E-001   1.79065244E-001   9.76226901E-001
   1.55000000E+002   9.78830638E-001   1.79065247E-001   9.78830644E-001
   1.60000000E+002   9.80275768E-001   1.79065250E-001   9.80275773E-001
   1.65000000E+002   9.82037340E-001   1.79065253E-001   9.82037344E-001
   1.70000000E+002   9.83525565E-001   1.79065255E-001   9.83525568E-001
   1.75000000E+002   9.85048563E-001   1.79065256E-001   9.85048566E-001
   1.80000000E+002   9.86436785E-001   1.79065258E-001   9.86436787E-001
   1.85000000E+002   9.87677102E-001   1.79065259E-001   9.87677104E-001
   1.90000000E+002   9.88366064E-001   1.79065260E-001   9.88366066E-001
   1.95000000E+002   9.89514470E-001   1.79065261E-001   9.89514472E-001
   2.00000000E+002   9.90450550E-001   1.79065262E-001   9.90450552E-001
   2.05000000E+002   9.91209824E-001   1.79065262E-001   9.91209825E-001
   2.10000000E+002   9.91884370E-001   1.79065263E-001   9.91884371E-001
   2.15000000E+002   9.92737215E-001   1.79065263E-001   9.92737216E-001
   2.20000000E+002   9.93251490E-001   1.79065264E-001   9.93251490E-001
   2.25000000E+002   9.93856321E-001   1.79065264E-001   9.93856322E-001
   2.30000000E+002   9.94422763E-001   1.79065265E-001   9.94422764E-001
   2.35000000E+002   9.94941323E-001   1.79065265E-001   9.94941324E-001
   2.40000000E+002   9.95215906E-001   1.79065265E-001   9.95215907E-001
   2.45000000E+002   9.95711389E-001   1.79065265E-001   9.95711389E-001
