# ./jetvheto -in n3lo-fixed-order/H125-LHC13-R04-mb-0-mt-1725-xmur025-xmuf050-log.fxd -xQ 0.25 -out benchmarks-n3lo-smallR/H125-LHC13-R04-mb-0-mt-1725-xmur025-xmuf050-xQ025-NNLO+NNLLb.R0-2.0.res -scheme b -order 2 -ptmax 500.01 -small-r -fixed_order 2 -loop-mass t -R0 2.0
# process = H    
# collider = pp   
# rts =  13000.000
# M   =    125.000
# muR =     31.250
# muF =     62.500
# Q   =     31.250
# p   =      5.000
# include_c1_squared =   F
# loop_mass  = t   
# alphas(MZ) =    0.11800
# alphas(M) =    0.11264
# alphas(muR) =    0.14091
# Rjet =      0.400
# order = NNLL
# pdf name and set = PDF4LHC15_nnlo_mc.LHgrid,    0
# matching scheme = b
# total cross sections [nb] at LO, NLOdiff, NNLOdiff, N3LOdiff =     0.019855    0.024744    0.005009   -0.002663
#----------------------------------------------------------------------
# the lines that follow give the jet-veto efficiencies as a function of pt
#         pt            matched eff      resummed eff     fixed-order eff
   2.00000000E+001   4.11448911E-001   4.53413569E-001   3.69272721E-001
   2.50000000E+001   4.93901025E-001   5.13693455E-001   4.69726360E-001
   3.00000000E+001   5.62931491E-001   5.49356239E-001   5.49511805E-001
   3.50000000E+001   6.21307347E-001   5.68852965E-001   6.13864488E-001
   4.00000000E+001   6.70735379E-001   5.79124336E-001   6.66517199E-001
   4.50000000E+001   7.12651252E-001   5.84561664E-001   7.10176284E-001
   5.00000000E+001   7.48568095E-001   5.87526288E-001   7.47057362E-001
   5.50000000E+001   7.78898451E-001   5.89206960E-001   7.77941942E-001
   6.00000000E+001   8.05000192E-001   5.90198750E-001   8.04372457E-001
   6.50000000E+001   8.27559909E-001   5.90806522E-001   8.27134891E-001
   7.00000000E+001   8.47149081E-001   5.91191919E-001   8.46853484E-001
   7.50000000E+001   8.64022749E-001   5.91443880E-001   8.63811915E-001
   8.00000000E+001   8.78842259E-001   5.91613137E-001   8.78688651E-001
   8.50000000E+001   8.91871294E-001   5.91729614E-001   8.91757209E-001
   9.00000000E+001   9.03338336E-001   5.91811514E-001   9.03252169E-001
   9.50000000E+001   9.13325130E-001   5.91870223E-001   9.13259014E-001
   1.00000000E+002   9.22280964E-001   5.91913044E-001   9.22229539E-001
   1.05000000E+002   9.30077346E-001   5.91944770E-001   9.30036845E-001
   1.10000000E+002   9.37046272E-001   5.91968611E-001   9.37014025E-001
   1.15000000E+002   9.43264290E-001   5.91986760E-001   9.43238345E-001
   1.20000000E+002   9.48838744E-001   5.92000741E-001   9.48817676E-001
   1.25000000E+002   9.53882284E-001   5.92011628E-001   9.53865028E-001
   1.30000000E+002   9.58304157E-001   5.92020192E-001   9.58289911E-001
   1.35000000E+002   9.62303048E-001   5.92026990E-001   9.62291205E-001
   1.40000000E+002   9.65924895E-001   5.92032433E-001   9.65914981E-001
   1.45000000E+002   9.69185876E-001   5.92036825E-001   9.69177523E-001
   1.50000000E+002   9.72170412E-001   5.92040396E-001   9.72163335E-001
   1.55000000E+002   9.74837323E-001   5.92043320E-001   9.74831295E-001
   1.60000000E+002   9.77250398E-001   5.92045729E-001   9.77245237E-001
   1.65000000E+002   9.79413526E-001   5.92047726E-001   9.79409086E-001
   1.70000000E+002   9.81402855E-001   5.92049390E-001   9.81399018E-001
   1.75000000E+002   9.83209962E-001   5.92050786E-001   9.83206634E-001
   1.80000000E+002   9.84813732E-001   5.92051961E-001   9.84810833E-001
   1.85000000E+002   9.86295825E-001   5.92052956E-001   9.86293290E-001
   1.90000000E+002   9.87649509E-001   5.92053802E-001   9.87647285E-001
   1.95000000E+002   9.88870465E-001   5.92054524E-001   9.88868507E-001
   2.00000000E+002   9.89981804E-001   5.92055144E-001   9.89980075E-001
   2.05000000E+002   9.91001780E-001   5.92055677E-001   9.91000249E-001
   2.10000000E+002   9.91900608E-001   5.92056137E-001   9.91899248E-001
   2.15000000E+002   9.92756630E-001   5.92056536E-001   9.92755418E-001
   2.20000000E+002   9.93535272E-001   5.92056883E-001   9.93534190E-001
   2.25000000E+002   9.94207264E-001   5.92057186E-001   9.94206295E-001
   2.30000000E+002   9.94889887E-001   5.92057451E-001   9.94889017E-001
   2.35000000E+002   9.95458828E-001   5.92057684E-001   9.95458046E-001
   2.40000000E+002   9.95995959E-001   5.92057888E-001   9.95995254E-001
   2.45000000E+002   9.96486277E-001   5.92058069E-001   9.96485640E-001
