# ./jetvheto -in n3lo-fixed-order/H125-LHC13-R04-mb-475-mt-1725-xmur025-xmuf050-log.fxd -xQ 0.5 -out benchmarks-n3lo-smallR/H125-LHC13-R04-mb-475-mt-1725-xmur025-xmuf050-xQ050-NNLO+NNLLb.res -scheme b -order 2 -ptmax 500.01 -fixed_order 2 -loop-mass t+b
# process = H    
# collider = pp   
# rts =  13000.000
# M   =    125.000
# muR =     31.250
# muF =     62.500
# Q   =     62.500
# p   =      5.000
# include_c1_squared =   F
# loop_mass  = t+b 
# alphas(MZ) =    0.11800
# alphas(M) =    0.11264
# alphas(muR) =    0.14091
# Rjet =      0.400
# order = NNLL
# pdf name and set = PDF4LHC15_nnlo_mc.LHgrid,    0
# matching scheme = b
# total cross sections [nb] at LO, NLOdiff, NNLOdiff, N3LOdiff =     0.017683    0.024805    0.005009   -0.002663
#----------------------------------------------------------------------
# the lines that follow give the jet-veto efficiencies as a function of pt
#         pt            matched eff      resummed eff     fixed-order eff
   2.00000000E+001   4.32851097E-001   4.63225801E-001   3.45013482E-001
   2.50000000E+001   5.16305366E-001   5.29223518E-001   4.46678028E-001
   3.00000000E+001   5.83559992E-001   5.74758578E-001   5.28145480E-001
   3.50000000E+001   6.38314418E-001   6.05770315E-001   5.94218939E-001
   4.00000000E+001   6.83372793E-001   6.26434936E-001   6.48501749E-001
   4.50000000E+001   7.21270209E-001   6.39760948E-001   6.93918270E-001
   5.00000000E+001   7.53454606E-001   6.48001681E-001   7.32217372E-001
   5.50000000E+001   7.80995033E-001   6.52859697E-001   7.64650938E-001
   6.00000000E+001   8.04891602E-001   6.55584135E-001   7.92387018E-001
   6.50000000E+001   8.25801829E-001   6.57036465E-001   8.16263144E-001
   7.00000000E+001   8.44350364E-001   6.57771325E-001   8.37069884E-001
   7.50000000E+001   8.60557271E-001   6.58121163E-001   8.54982301E-001
   8.00000000E+001   8.75022166E-001   6.58273235E-001   8.70729506E-001
   8.50000000E+001   8.87924732E-001   6.58327857E-001   8.84596193E-001
   9.00000000E+001   8.99349448E-001   6.58336962E-001   8.96749054E-001
   9.50000000E+001   9.09422966E-001   6.58326495E-001   9.07374553E-001
   1.00000000E+002   9.18492991E-001   6.58308991E-001   9.16865875E-001
   1.05000000E+002   9.26529360E-001   6.58290247E-001   9.25226146E-001
   1.10000000E+002   9.33712285E-001   6.58272746E-001   9.32660346E-001
   1.15000000E+002   9.40168278E-001   6.58257374E-001   9.39312551E-001
   1.20000000E+002   9.45949006E-001   6.58244287E-001   9.45247859E-001
   1.25000000E+002   9.51197906E-001   6.58233325E-001   9.50619386E-001
   1.30000000E+002   9.55834684E-001   6.58224220E-001   9.55354243E-001
   1.35000000E+002   9.60043583E-001   6.58216685E-001   9.59642145E-001
   1.40000000E+002   9.63858082E-001   6.58210453E-001   9.63520673E-001
   1.45000000E+002   9.67272998E-001   6.58205294E-001   9.66987843E-001
   1.50000000E+002   9.70404093E-001   6.58201014E-001   9.70161843E-001
   1.55000000E+002   9.73221532E-001   6.58197451E-001   9.73014721E-001
   1.60000000E+002   9.75769169E-001   6.58194477E-001   9.75591796E-001
   1.65000000E+002   9.78055375E-001   6.58191984E-001   9.77902582E-001
   1.70000000E+002   9.80143771E-001   6.58189887E-001   9.80011610E-001
   1.75000000E+002   9.82075035E-001   6.58188116E-001   9.81960264E-001
   1.80000000E+002   9.83779331E-001   6.58186614E-001   9.83679291E-001
   1.85000000E+002   9.85359874E-001   6.58185337E-001   9.85272360E-001
   1.90000000E+002   9.86799894E-001   6.58184246E-001   9.86723082E-001
   1.95000000E+002   9.88097322E-001   6.58183311E-001   9.88029685E-001
   2.00000000E+002   9.89275054E-001   6.58182507E-001   9.89215313E-001
   2.05000000E+002   9.90363118E-001   6.58181812E-001   9.90310198E-001
   2.10000000E+002   9.91319636E-001   6.58181211E-001   9.91272628E-001
   2.15000000E+002   9.92234030E-001   6.58180689E-001   9.92192159E-001
   2.20000000E+002   9.93069232E-001   6.58180234E-001   9.93031843E-001
   2.25000000E+002   9.93784137E-001   6.58179837E-001   9.93750669E-001
   2.30000000E+002   9.94507039E-001   6.58179488E-001   9.94477010E-001
   2.35000000E+002   9.95117221E-001   6.58179182E-001   9.95090217E-001
   2.40000000E+002   9.95688943E-001   6.58178912E-001   9.95664606E-001
   2.45000000E+002   9.96204337E-001   6.58178674E-001   9.96182360E-001
