# ./jetvheto -in n3lo-fixed-order/H125-LHC13-R04-mb-475-mt-1725-xmur200-xmuf100-log.fxd -xQ 0.5 -out benchmarks-n3lo-smallR/H125-LHC13-R04-mb-475-mt-1725-xmur200-xmuf100-xQ050-NNLO+NNLLa.res -scheme a -order 2 -ptmax 500.01 -fixed_order 2 -loop-mass t+b
# process = H    
# collider = pp   
# rts =  13000.000
# M   =    125.000
# muR =    250.000
# muF =    125.000
# Q   =     62.500
# p   =      5.000
# include_c1_squared =   F
# loop_mass  = t+b 
# alphas(MZ) =    0.11800
# alphas(M) =    0.11264
# alphas(muR) =    0.10244
# Rjet =      0.400
# order = NNLL
# pdf name and set = PDF4LHC15_nnlo_mc.LHgrid,    0
# matching scheme = a
# total cross sections [nb] at LO, NLOdiff, NNLOdiff, N3LOdiff =     0.010243    0.014468    0.010526    0.005600
#----------------------------------------------------------------------
# the lines that follow give the jet-veto efficiencies as a function of pt
#         pt            matched eff      resummed eff     fixed-order eff
   2.00000000E+001   4.79341130E-001   5.12805767E-001   5.29433236E-001
   2.50000000E+001   5.70176453E-001   5.96923082E-001   6.05818211E-001
   3.00000000E+001   6.41260452E-001   6.57160381E-001   6.64452408E-001
   3.50000000E+001   6.97407281E-001   6.99775458E-001   7.11123136E-001
   4.00000000E+001   7.41822172E-001   7.29396067E-001   7.48917608E-001
   4.50000000E+001   7.77342742E-001   7.49502773E-001   7.80175121E-001
   5.00000000E+001   8.06045350E-001   7.62775180E-001   8.06390774E-001
   5.50000000E+001   8.29456737E-001   7.71290947E-001   8.28537610E-001
   6.00000000E+001   8.48983195E-001   7.76628114E-001   8.47561956E-001
   6.50000000E+001   8.65480127E-001   7.79926675E-001   8.63977779E-001
   7.00000000E+001   8.79576791E-001   7.81960321E-001   8.78193766E-001
   7.50000000E+001   8.91765019E-001   7.83225081E-001   8.90574977E-001
   8.00000000E+001   9.02485775E-001   7.84025544E-001   9.01497366E-001
   8.50000000E+001   9.11856241E-001   7.84543895E-001   9.11050345E-001
   9.00000000E+001   9.20224857E-001   7.84888242E-001   9.19573396E-001
   9.50000000E+001   9.27607978E-001   7.85122980E-001   9.27082751E-001
   1.00000000E+002   9.34195136E-001   7.85286994E-001   9.33771248E-001
   1.05000000E+002   9.40117589E-001   7.85404229E-001   9.39774369E-001
   1.10000000E+002   9.45353784E-001   7.85489767E-001   9.45074658E-001
   1.15000000E+002   9.50112803E-001   7.85553334E-001   9.49884601E-001
   1.20000000E+002   9.54332959E-001   7.85601352E-001   9.54145364E-001
   1.25000000E+002   9.58206875E-001   7.85638156E-001   9.58051762E-001
   1.30000000E+002   9.61693978E-001   7.85666733E-001   9.61564997E-001
   1.35000000E+002   9.64865427E-001   7.85689181E-001   9.64757578E-001
   1.40000000E+002   9.67721588E-001   7.85707001E-001   9.67630916E-001
   1.45000000E+002   9.70357014E-001   7.85721282E-001   9.70280390E-001
   1.50000000E+002   9.72720887E-001   7.85732826E-001   9.72655808E-001
   1.55000000E+002   9.74909055E-001   7.85742231E-001   9.74853517E-001
   1.60000000E+002   9.76884403E-001   7.85749950E-001   9.76836796E-001
   1.65000000E+002   9.78696529E-001   7.85756328E-001   9.78655541E-001
   1.70000000E+002   9.80356785E-001   7.85761630E-001   9.80321351E-001
   1.75000000E+002   9.81861865E-001   7.85766064E-001   9.81831112E-001
   1.80000000E+002   9.83245444E-001   7.85769792E-001   9.83218654E-001
   1.85000000E+002   9.84513572E-001   7.85772942E-001   9.84490151E-001
   1.90000000E+002   9.85679820E-001   7.85775617E-001   9.85659275E-001
   1.95000000E+002   9.86767140E-001   7.85777898E-001   9.86749058E-001
   2.00000000E+002   9.87754563E-001   7.85779851E-001   9.87738601E-001
   2.05000000E+002   9.88670886E-001   7.85781531E-001   9.88656754E-001
   2.10000000E+002   9.89509401E-001   7.85782981E-001   9.89496854E-001
   2.15000000E+002   9.90267220E-001   7.85784237E-001   9.90256049E-001
   2.20000000E+002   9.90980139E-001   7.85785329E-001   9.90970169E-001
   2.25000000E+002   9.91633548E-001   7.85786281E-001   9.91624627E-001
   2.30000000E+002   9.92236274E-001   7.85787114E-001   9.92228272E-001
   2.35000000E+002   9.92798195E-001   7.85787845E-001   9.92791002E-001
   2.40000000E+002   9.93305945E-001   7.85788488E-001   9.93299464E-001
   2.45000000E+002   9.93786492E-001   7.85789055E-001   9.93780642E-001
