# python build-Q2-histos.py --mtQ1file ../../JetVHeto/benchmarks-n3lo-smallR/H125-LHC13-R04-mb-0-mt-1725-xmur050-xmuf100-xQ050-N3LO+NNLLb.R0-1.0.res --mtQ2file ../../JetVHeto/benchmarks-n3lo-smallR/H125-LHC13-R04-mb-0-mt-1725-xmur050-xmuf100-xQ0625-N3LO+NNLLb.R0-1.0.res --mtmbQ2file ../../JetVHeto/benchmarks-n3lo-smallR/H125-LHC13-R04-mb-475-mt-1725-xmur050-xmuf100-xQ0625-N3LO+NNLLb.R0-1.0.res
# process = H    
# collider = pp   
# rts =  13000.000
# M   =    125.000
# muR =     62.500
# muF =    125.000
# Q1  =  62.500; Q2  =  7.812
# p   =      5.000
# include_c1_squared =   F
# loop_mass  = t+b 
# alphas(MZ) =    0.11800
# alphas(M) =    0.11264
# alphas(muR) =    0.12516
# Rjet =      0.400
# order = NNLL
# pdf name and set = PDF4LHC15_nnlo_mc.LHgrid,    0
# matching scheme = b
# total cross sections [nb] at LO, NLOdiff, NNLOdiff, N3LOdiff =     0.015023    0.020252    0.008553    0.000949
#----------------------------------------------------------------------
# the lines that follow give the jet-veto efficiencies as a function of pt
#         pt            matched eff      resummed eff     fixed-order eff
20.0 0.444328990211 0.526442688477 0.422022001
25.0 0.528673475998 0.606453992695 0.510305136
30.0 0.602458218264 0.662356867468 0.588327259
35.0 0.659591201206 0.700914512582 0.648206817
40.0 0.705734373022 0.726961400971 0.696568548
45.0 0.74311565023 0.744049863697 0.735802106
50.0 0.775134081045 0.754861593637 0.769386078
55.0 0.802778823173 0.761434161122 0.798313706
60.0 0.825995551383 0.765279086768 0.82254764
65.0 0.847269573894 0.767457133948 0.844619571
70.0 0.865093524992 0.768662508178 0.863058779
75.0 0.879485206534 0.769320425592 0.877921035
80.0 0.892261153922 0.769677539323 0.891053486
85.0 0.904064466055 0.769871370244 0.903126493
90.0 0.913978992238 0.769976920477 0.913245267
95.0 0.923280508361 0.770034620665 0.922702012
100.0 0.930778170102 0.77006622716 0.930318877
105.0 0.93757051231 0.770083491339 0.937202914
110.0 0.94373697946 0.770092819827 0.943440479
115.0 0.949257041724 0.770097729119 0.949016071
120.0 0.953951801195 0.770100175131 0.953754638
125.0 0.957957656547 0.770101255784 0.957795252
130.0 0.962212397666 0.770101586709 0.962077662
135.0 0.96589494983 0.770101521246 0.965782485
140.0 0.96885729729 0.770101253516 0.968762947
145.0 0.971767281269 0.770100898786 0.971687638
150.0 0.97415657421 0.770100517836 0.974089037
155.0 0.976976384067 0.770100144326 0.976918783
160.0 0.978534618256 0.77009979284 0.978485312
165.0 0.980447725707 0.770099471818 0.980405311
170.0 0.982063325102 0.770099185404 0.982026686
175.0 0.98372104903 0.770098931503 0.98368927
180.0 0.985222534929 0.770098705968 0.985194866
185.0 0.98657252346 0.770098509749 0.986548347
190.0 0.987323221353 0.770098336653 0.987302036
195.0 0.988574906976 0.770098183532 0.988556267
200.0 0.989596199037 0.770098051337 0.98957975
205.0 0.990422516046 0.770097935923 0.990407959
210.0 0.991164353811 0.770097832094 0.991151437
215.0 0.992086698672 0.770097743949 0.992075203
220.0 0.992649558069 0.770097664242 0.992639301
225.0 0.993308334733 0.770097596022 0.993299159
230.0 0.993922772591 0.770097533096 0.993914547
235.0 0.994483971815 0.770097479608 0.99447658
240.0 0.994783691624 0.770097431365 0.994777034
245.0 0.995323380432 0.770097389365 0.995317372
