# ./jetvheto -in n3lo-fixed-order/H125-LHC13-R04-mb-475-mt-1725-xmur100-xmuf050-log.fxd -xQ 0.25 -out benchmarks-n3lo-smallR/H125-LHC13-R04-mb-475-mt-1725-xmur100-xmuf050-xQ025-N3LO+NNLLa.R0-2.0.res -scheme a -order 2 -ptmax 500.01 -fixed_order 3 -small-r -loop-mass t+b -R0 2.0
# process = H    
# collider = pp   
# rts =  13000.000
# M   =    125.000
# muR =    125.000
# muF =     62.500
# Q   =     31.250
# p   =      5.000
# include_c1_squared =   F
# loop_mass  = t+b 
# alphas(MZ) =    0.11800
# alphas(M) =    0.11264
# alphas(muR) =    0.11264
# Rjet =      0.400
# order = NNLL
# pdf name and set = PDF4LHC15_nnlo_mc.LHgrid,    0
# matching scheme = a
# total cross sections [nb] at LO, NLOdiff, NNLOdiff, N3LOdiff =     0.011575    0.016866    0.010424    0.004163
#----------------------------------------------------------------------
# the lines that follow give the jet-veto efficiencies as a function of pt
#         pt            matched eff      resummed eff     fixed-order eff
   2.00000000E+001   4.47660162E-001   5.11717642E-001   4.53573922E-001
   2.50000000E+001   5.33892876E-001   5.82311819E-001   5.38019533E-001
   3.00000000E+001   6.05280159E-001   6.24128321E-001   6.08084402E-001
   3.50000000E+001   6.62328554E-001   6.47004368E-001   6.64092911E-001
   4.00000000E+001   7.07385050E-001   6.59060526E-001   7.08459732E-001
   4.50000000E+001   7.46136478E-001   6.65443992E-001   7.46824661E-001
   5.00000000E+001   7.77757152E-001   6.68924887E-001   7.78201838E-001
   5.50000000E+001   8.04956356E-001   6.70898369E-001   8.05254341E-001
   6.00000000E+001   8.27682136E-001   6.72062996E-001   8.27885254E-001
   6.50000000E+001   8.48101056E-001   6.72776699E-001   8.48244754E-001
   7.00000000E+001   8.64692148E-001   6.73229275E-001   8.64794164E-001
   7.50000000E+001   8.79334906E-001   6.73525159E-001   8.79409129E-001
   8.00000000E+001   8.92436450E-001   6.73723922E-001   8.92491595E-001
   8.50000000E+001   9.04061223E-001   6.73860705E-001   9.04102870E-001
   9.00000000E+001   9.14260856E-001   6.73956884E-001   9.14292757E-001
   9.50000000E+001   9.22771001E-001   6.74025829E-001   9.22795598E-001
   1.00000000E+002   9.30660771E-001   6.74076115E-001   9.30680042E-001
   1.05000000E+002   9.37281320E-001   6.74113372E-001   9.37296509E-001
   1.10000000E+002   9.43256338E-001   6.74141369E-001   9.43268451E-001
   1.15000000E+002   9.48812501E-001   6.74162683E-001   9.48822273E-001
   1.20000000E+002   9.53787507E-001   6.74179101E-001   9.53795459E-001
   1.25000000E+002   9.58084641E-001   6.74191887E-001   9.58091146E-001
   1.30000000E+002   9.61858767E-001   6.74201943E-001   9.61864125E-001
   1.35000000E+002   9.65466614E-001   6.74209926E-001   9.65471069E-001
   1.40000000E+002   9.68752720E-001   6.74216318E-001   9.68756448E-001
   1.45000000E+002   9.71639895E-001   6.74221476E-001   9.71643032E-001
   1.50000000E+002   9.74055030E-001   6.74225670E-001   9.74057675E-001
   1.55000000E+002   9.76557593E-001   6.74229104E-001   9.76559846E-001
   1.60000000E+002   9.78808861E-001   6.74231932E-001   9.78810789E-001
   1.65000000E+002   9.80456008E-001   6.74234277E-001   9.80457656E-001
   1.70000000E+002   9.82261047E-001   6.74236232E-001   9.82262469E-001
   1.75000000E+002   9.83949110E-001   6.74237871E-001   9.83950342E-001
   1.80000000E+002   9.85327577E-001   6.74239251E-001   9.85328648E-001
   1.85000000E+002   9.86603965E-001   6.74240420E-001   9.86604898E-001
   1.90000000E+002   9.87842868E-001   6.74241413E-001   9.87843685E-001
   1.95000000E+002   9.88980199E-001   6.74242261E-001   9.88980917E-001
   2.00000000E+002   9.89997176E-001   6.74242989E-001   9.89997809E-001
   2.05000000E+002   9.90861588E-001   6.74243615E-001   9.90862147E-001
   2.10000000E+002   9.91684312E-001   6.74244155E-001   9.91684807E-001
   2.15000000E+002   9.92387353E-001   6.74244624E-001   9.92387793E-001
   2.20000000E+002   9.93216742E-001   6.74245032E-001   9.93217135E-001
   2.25000000E+002   9.93760137E-001   6.74245387E-001   9.93760488E-001
   2.30000000E+002   9.94353633E-001   6.74245698E-001   9.94353948E-001
   2.35000000E+002   9.94831159E-001   6.74245972E-001   9.94831441E-001
   2.40000000E+002   9.95312458E-001   6.74246212E-001   9.95312711E-001
   2.45000000E+002   9.95811916E-001   6.74246424E-001   9.95812145E-001
