# ./jetvheto -in n3lo-fixed-order/H125-LHC13-R04-mb-475-mt-1725-xmur050-xmuf050-log.fxd -xQ 1.0 -out benchmarks-n3lo-smallR/H125-LHC13-R04-mb-475-mt-1725-xmur050-xmuf050-xQ100-N3LO+NNLLb.R0-1.5.res -scheme b -order 2 -ptmax 500.01 -fixed_order 3 -small-r -loop-mass t+b -R0 1.5
# process = H    
# collider = pp   
# rts =  13000.000
# M   =    125.000
# muR =     62.500
# muF =     62.500
# Q   =    125.000
# p   =      5.000
# include_c1_squared =   F
# loop_mass  = t+b 
# alphas(MZ) =    0.11800
# alphas(M) =    0.11264
# alphas(muR) =    0.12516
# Rjet =      0.400
# order = NNLL
# pdf name and set = PDF4LHC15_nnlo_mc.LHgrid,    0
# matching scheme = b
# total cross sections [nb] at LO, NLOdiff, NNLOdiff, N3LOdiff =     0.014147    0.020254    0.008998    0.001413
#----------------------------------------------------------------------
# the lines that follow give the jet-veto efficiencies as a function of pt
#         pt            matched eff      resummed eff     fixed-order eff
   2.00000000E+001   4.97118021E-001   6.12566219E-001   4.22880362E-001
   2.50000000E+001   5.76304183E-001   6.83857643E-001   5.10871357E-001
   3.00000000E+001   6.44034380E-001   7.32203992E-001   5.86554172E-001
   3.50000000E+001   6.97783776E-001   7.64546128E-001   6.46974526E-001
   4.00000000E+001   7.38892429E-001   7.85593830E-001   6.94053894E-001
   4.50000000E+001   7.75330565E-001   7.98515392E-001   7.35572065E-001
   5.00000000E+001   8.04094000E-001   8.05516024E-001   7.68984657E-001
   5.50000000E+001   8.29148503E-001   8.08179473E-001   7.98072300E-001
   6.00000000E+001   8.49436908E-001   8.07658030E-001   8.22057983E-001
   6.50000000E+001   8.68448059E-001   8.04815488E-001   8.44160448E-001
   7.00000000E+001   8.82691970E-001   8.00315130E-001   8.61397413E-001
   7.50000000E+001   8.95488731E-001   7.94668299E-001   8.76789719E-001
   8.00000000E+001   9.07135579E-001   7.88278935E-001   8.90691953E-001
   8.50000000E+001   9.17499028E-001   7.81472042E-001   9.03050366E-001
   9.00000000E+001   9.26571606E-001   7.74509515E-001   9.13896477E-001
   9.50000000E+001   9.33664847E-001   7.67599770E-001   9.22639584E-001
   1.00000000E+002   9.40536125E-001   7.60906757E-001   9.30924075E-001
   1.05000000E+002   9.45937022E-001   7.54553332E-001   9.37618957E-001
   1.10000000E+002   9.50920554E-001   7.48625567E-001   9.43720915E-001
   1.15000000E+002   9.55743251E-001   7.43177540E-001   9.49502090E-001
   1.20000000E+002   9.60085318E-001   7.38234466E-001   9.54678868E-001
   1.25000000E+002   9.63669753E-001   7.33798857E-001   9.59003817E-001
   1.30000000E+002   9.66787988E-001   7.29855822E-001   9.62764111E-001
   1.35000000E+002   9.69973394E-001   7.26377896E-001   9.66490458E-001
   1.40000000E+002   9.72897512E-001   7.23329551E-001   9.69880698E-001
   1.45000000E+002   9.75419949E-001   7.20670969E-001   9.72807360E-001
   1.50000000E+002   9.77360877E-001   7.18360998E-001   9.75102905E-001
   1.55000000E+002   9.79673760E-001   7.16359288E-001   9.77708768E-001
   1.60000000E+002   9.81751300E-001   7.14627721E-001   9.80038790E-001
   1.65000000E+002   9.82976729E-001   7.13131210E-001   9.81490611E-001
   1.70000000E+002   9.84623623E-001   7.11838202E-001   9.83324317E-001
   1.75000000E+002   9.86188188E-001   7.10720736E-001   9.85049293E-001
   1.80000000E+002   9.87365914E-001   7.09754267E-001   9.86367565E-001
   1.85000000E+002   9.88461246E-001   7.08917468E-001   9.87583960E-001
   1.90000000E+002   9.89593691E-001   7.08191930E-001   9.88819869E-001
   1.95000000E+002   9.90642493E-001   7.07561840E-001   9.89958231E-001
   2.00000000E+002   9.91567711E-001   7.07013660E-001   9.90961409E-001
   2.05000000E+002   9.92300602E-001   7.06535823E-001   9.91762726E-001
   2.10000000E+002   9.93039577E-001   7.06118464E-001   9.92560879E-001
   2.15000000E+002   9.93614663E-001   7.05753170E-001   9.93188169E-001
   2.20000000E+002   9.94454447E-001   7.05432771E-001   9.94072436E-001
   2.25000000E+002   9.94875836E-001   7.05151149E-001   9.94534058E-001
   2.30000000E+002   9.95401506E-001   7.04903083E-001   9.95094697E-001
   2.35000000E+002   9.95788315E-001   7.04684109E-001   9.95512527E-001
   2.40000000E+002   9.96209193E-001   7.04490408E-001   9.95960635E-001
   2.45000000E+002   9.96699263E-001   7.04318707E-001   9.96474558E-001
