# ./jetvheto -in n3lo-fixed-order/H125-LHC13-R04-mb-0-mt-1725-xmur050-xmuf050-log.fxd -xQ 0.333 -out benchmarks-n3lo-smallR/H125-LHC13-R04-mb-0-mt-1725-xmur050-xmuf050-xQ033-NNLO+NNLLa.R0-1.0.res -scheme a -order 2 -ptmax 500.01 -small-r -fixed_order 2 -loop-mass t -R0 1.0
# process = H    
# collider = pp   
# rts =  13000.000
# M   =    125.000
# muR =     62.500
# muF =     62.500
# Q   =     41.625
# p   =      5.000
# include_c1_squared =   F
# loop_mass  = t   
# alphas(MZ) =    0.11800
# alphas(M) =    0.11264
# alphas(muR) =    0.12516
# Rjet =      0.400
# order = NNLL
# pdf name and set = PDF4LHC15_nnlo_mc.LHgrid,    0
# matching scheme = a
# total cross sections [nb] at LO, NLOdiff, NNLOdiff, N3LOdiff =     0.015885    0.020561    0.008998    0.001413
#----------------------------------------------------------------------
# the lines that follow give the jet-veto efficiencies as a function of pt
#         pt            matched eff      resummed eff     fixed-order eff
   2.00000000E+001   4.66724084E-001   4.90614034E-001   4.69057413E-001
   2.50000000E+001   5.53506709E-001   5.66897053E-001   5.55288671E-001
   3.00000000E+001   6.21568064E-001   6.18604791E-001   6.22338019E-001
   3.50000000E+001   6.75771744E-001   6.52167005E-001   6.75875821E-001
   4.00000000E+001   7.19564950E-001   6.73040542E-001   7.19396295E-001
   4.50000000E+001   7.55563427E-001   6.85637297E-001   7.55344248E-001
   5.00000000E+001   7.85869943E-001   6.93157949E-001   7.85683467E-001
   5.50000000E+001   8.11157385E-001   6.97679642E-001   8.11020538E-001
   6.00000000E+001   8.32852861E-001   7.00448969E-001   8.32757246E-001
   6.50000000E+001   8.51567520E-001   7.02186520E-001   8.51501964E-001
   7.00000000E+001   8.67779342E-001   7.03305169E-001   8.67734675E-001
   7.50000000E+001   8.81794052E-001   7.04043826E-001   8.81763053E-001
   8.00000000E+001   8.94108843E-001   7.04543348E-001   8.94087077E-001
   8.50000000E+001   9.04962170E-001   7.04888679E-001   9.04946611E-001
   9.00000000E+001   9.14528623E-001   7.05132275E-001   9.14517318E-001
   9.50000000E+001   9.22911497E-001   7.05307291E-001   9.22903074E-001
   1.00000000E+002   9.30446541E-001   7.05435154E-001   9.30440166E-001
   1.05000000E+002   9.37040174E-001   7.05530000E-001   9.37035250E-001
   1.10000000E+002   9.42940507E-001   7.05601340E-001   9.42936658E-001
   1.15000000E+002   9.48235622E-001   7.05655686E-001   9.48232561E-001
   1.20000000E+002   9.53000610E-001   7.05697573E-001   9.52998144E-001
   1.25000000E+002   9.57328472E-001   7.05730204E-001   9.57326460E-001
   1.30000000E+002   9.61150312E-001   7.05755878E-001   9.61148649E-001
   1.35000000E+002   9.64603162E-001   7.05776264E-001   9.64601780E-001
   1.40000000E+002   9.67752094E-001   7.05792590E-001   9.67750932E-001
   1.45000000E+002   9.70613624E-001   7.05805767E-001   9.70612637E-001
   1.50000000E+002   9.73233405E-001   7.05816482E-001   9.73232562E-001
   1.55000000E+002   9.75587721E-001   7.05825255E-001   9.75586996E-001
   1.60000000E+002   9.77727874E-001   7.05832483E-001   9.77727247E-001
   1.65000000E+002   9.79661436E-001   7.05838476E-001   9.79660891E-001
   1.70000000E+002   9.81440079E-001   7.05843473E-001   9.81439603E-001
   1.75000000E+002   9.83054087E-001   7.05847661E-001   9.83053670E-001
   1.80000000E+002   9.84507889E-001   7.05851189E-001   9.84507522E-001
   1.85000000E+002   9.85854601E-001   7.05854175E-001   9.85854277E-001
   1.90000000E+002   9.87085701E-001   7.05856715E-001   9.87085413E-001
   1.95000000E+002   9.88208570E-001   7.05858883E-001   9.88208314E-001
   2.00000000E+002   9.89236201E-001   7.05860742E-001   9.89235973E-001
   2.05000000E+002   9.90177963E-001   7.05862342E-001   9.90177759E-001
   2.10000000E+002   9.91021460E-001   7.05863724E-001   9.91021276E-001
   2.15000000E+002   9.91819806E-001   7.05864923E-001   9.91819641E-001
   2.20000000E+002   9.92549210E-001   7.05865965E-001   9.92549062E-001
   2.25000000E+002   9.93196888E-001   7.05866874E-001   9.93196753E-001
   2.30000000E+002   9.93833218E-001   7.05867669E-001   9.93833097E-001
   2.35000000E+002   9.94380472E-001   7.05868368E-001   9.94380362E-001
   2.40000000E+002   9.94898000E-001   7.05868982E-001   9.94897900E-001
   2.45000000E+002   9.95371297E-001   7.05869525E-001   9.95371206E-001
