# ./jetvheto -in n3lo-fixed-order/H125-LHC13-R04-mb-475-mt-1725-xmur200-xmuf100-log.fxd -xQ 0.25 -out benchmarks-n3lo-smallR/H125-LHC13-R04-mb-475-mt-1725-xmur200-xmuf100-xQ025-N3LO+NNLLa.R0-1.0.res -scheme a -order 2 -ptmax 500.01 -fixed_order 3 -small-r -loop-mass t+b -R0 1.0
# process = H    
# collider = pp   
# rts =  13000.000
# M   =    125.000
# muR =    250.000
# muF =    125.000
# Q   =     31.250
# p   =      5.000
# include_c1_squared =   F
# loop_mass  = t+b 
# alphas(MZ) =    0.11800
# alphas(M) =    0.11264
# alphas(muR) =    0.10244
# Rjet =      0.400
# order = NNLL
# pdf name and set = PDF4LHC15_nnlo_mc.LHgrid,    0
# matching scheme = a
# total cross sections [nb] at LO, NLOdiff, NNLOdiff, N3LOdiff =     0.010243    0.014468    0.010526    0.005600
#----------------------------------------------------------------------
# the lines that follow give the jet-veto efficiencies as a function of pt
#         pt            matched eff      resummed eff     fixed-order eff
   2.00000000E+001   4.63633139E-001   5.54490410E-001   4.73494745E-001
   2.50000000E+001   5.49719288E-001   6.27462869E-001   5.56567496E-001
   3.00000000E+001   6.20120354E-001   6.70319910E-001   6.24602117E-001
   3.50000000E+001   6.75199120E-001   6.93621101E-001   6.77949159E-001
   4.00000000E+001   7.19462870E-001   7.05854108E-001   7.21153727E-001
   4.50000000E+001   7.55527294E-001   7.12316941E-001   7.56587199E-001
   5.00000000E+001   7.85886036E-001   7.15836661E-001   7.86572074E-001
   5.50000000E+001   8.11656916E-001   7.17830702E-001   8.12114650E-001
   6.00000000E+001   8.33501803E-001   7.19006959E-001   8.33814754E-001
   6.50000000E+001   8.52769381E-001   7.19727603E-001   8.52989485E-001
   7.00000000E+001   8.69159644E-001   7.20184507E-001   8.69317384E-001
   7.50000000E+001   8.82947361E-001   7.20483188E-001   8.83062188E-001
   8.00000000E+001   8.95102640E-001   7.20683816E-001   8.95187770E-001
   8.50000000E+001   9.05949355E-001   7.20821877E-001   9.06013600E-001
   9.00000000E+001   9.15365044E-001   7.20918951E-001   9.15414143E-001
   9.50000000E+001   9.23864585E-001   7.20988536E-001   9.23902665E-001
   1.00000000E+002   9.31110220E-001   7.21039288E-001   9.31140034E-001
   1.05000000E+002   9.37625517E-001   7.21076889E-001   9.37649125E-001
   1.10000000E+002   9.43436592E-001   7.21105145E-001   9.43455481E-001
   1.15000000E+002   9.48673551E-001   7.21126656E-001   9.48688803E-001
   1.20000000E+002   9.53230021E-001   7.21143226E-001   9.53242433E-001
   1.25000000E+002   9.57283654E-001   7.21156129E-001   9.57293828E-001
   1.30000000E+002   9.61181889E-001   7.21166279E-001   9.61190307E-001
   1.35000000E+002   9.64650301E-001   7.21174335E-001   9.64657308E-001
   1.40000000E+002   9.67624924E-001   7.21180786E-001   9.67630788E-001
   1.45000000E+002   9.70441730E-001   7.21185992E-001   9.70446670E-001
   1.50000000E+002   9.72872565E-001   7.21190224E-001   9.72876747E-001
   1.55000000E+002   9.75360288E-001   7.21193689E-001   9.75363852E-001
   1.60000000E+002   9.77218494E-001   7.21196544E-001   9.77221540E-001
   1.65000000E+002   9.79109000E-001   7.21198911E-001   9.79111617E-001
   1.70000000E+002   9.80787740E-001   7.21200884E-001   9.80789999E-001
   1.75000000E+002   9.82382132E-001   7.21202538E-001   9.82384090E-001
   1.80000000E+002   9.83839734E-001   7.21203931E-001   9.83841438E-001
   1.85000000E+002   9.85162551E-001   7.21205110E-001   9.85164039E-001
   1.90000000E+002   9.86185995E-001   7.21206112E-001   9.86187297E-001
   1.95000000E+002   9.87358076E-001   7.21206968E-001   9.87359222E-001
   2.00000000E+002   9.88374988E-001   7.21207702E-001   9.88375999E-001
   2.05000000E+002   9.89271332E-001   7.21208334E-001   9.89272227E-001
   2.10000000E+002   9.90084446E-001   7.21208880E-001   9.90085240E-001
   2.15000000E+002   9.90917325E-001   7.21209353E-001   9.90918031E-001
   2.20000000E+002   9.91581833E-001   7.21209764E-001   9.91582463E-001
   2.25000000E+002   9.92246362E-001   7.21210123E-001   9.92246925E-001
   2.30000000E+002   9.92861844E-001   7.21210437E-001   9.92862349E-001
   2.35000000E+002   9.93432088E-001   7.21210713E-001   9.93432542E-001
   2.40000000E+002   9.93863849E-001   7.21210956E-001   9.93864257E-001
   2.45000000E+002   9.94373903E-001   7.21211170E-001   9.94374272E-001
