# ./jetvheto -in n3lo-fixed-order/H125-LHC13-R04-mb-0-mt-1725-xmur050-xmuf050-log.fxd -xQ 0.5 -out benchmarks-n3lo-smallR/H125-LHC13-R04-mb-0-mt-1725-xmur050-xmuf050-xQ050-N3LO+NNLLb.res -scheme b -order 2 -ptmax 500.01 -fixed_order 3 -loop-mass t
# process = H    
# collider = pp   
# rts =  13000.000
# M   =    125.000
# muR =     62.500
# muF =     62.500
# Q   =     62.500
# p   =      5.000
# include_c1_squared =   F
# loop_mass  = t   
# alphas(MZ) =    0.11800
# alphas(M) =    0.11264
# alphas(muR) =    0.12516
# Rjet =      0.400
# order = NNLL
# pdf name and set = PDF4LHC15_nnlo_mc.LHgrid,    0
# matching scheme = b
# total cross sections [nb] at LO, NLOdiff, NNLOdiff, N3LOdiff =     0.015885    0.020561    0.008998    0.001413
#----------------------------------------------------------------------
# the lines that follow give the jet-veto efficiencies as a function of pt
#         pt            matched eff      resummed eff     fixed-order eff
   2.00000000E+001   4.56479849E-001   4.97342320E-001   4.41643521E-001
   2.50000000E+001   5.42739996E-001   5.76822072E-001   5.29528045E-001
   3.00000000E+001   6.14940995E-001   6.33037089E-001   6.04131024E-001
   3.50000000E+001   6.72406161E-001   6.72308059E-001   6.63337130E-001
   4.00000000E+001   7.16995226E-001   6.99242692E-001   7.09302441E-001
   4.50000000E+001   7.55644940E-001   7.17239140E-001   7.49371437E-001
   5.00000000E+001   7.86771066E-001   7.28890525E-001   7.81702411E-001
   5.50000000E+001   8.13470293E-001   7.36192906E-001   8.09465789E-001
   6.00000000E+001   8.35511481E-001   7.40643015E-001   8.32379427E-001
   6.50000000E+001   8.55925665E-001   7.43302133E-001   8.53504482E-001
   7.00000000E+001   8.71727287E-001   7.44878387E-001   8.69854849E-001
   7.50000000E+001   8.85885562E-001   7.45816549E-001   8.84440584E-001
   8.00000000E+001   8.98701262E-001   7.46383027E-001   8.97583035E-001
   8.50000000E+001   9.10103030E-001   7.46732555E-001   9.09233323E-001
   9.00000000E+001   9.20183523E-001   7.46954047E-001   9.19502663E-001
   9.50000000E+001   9.28265189E-001   7.47098482E-001   9.27728280E-001
   1.00000000E+002   9.35989825E-001   7.47195396E-001   9.35563225E-001
   1.05000000E+002   9.42129918E-001   7.47262220E-001   9.41788367E-001
   1.10000000E+002   9.47778624E-001   7.47309474E-001   9.47503067E-001
   1.15000000E+002   9.53126911E-001   7.47343661E-001   9.52903001E-001
   1.20000000E+002   9.57949641E-001   7.47368905E-001   9.57766396E-001
   1.25000000E+002   9.61972797E-001   7.47387889E-001   9.61821780E-001
   1.30000000E+002   9.65446104E-001   7.47402395E-001   9.65320871E-001
   1.35000000E+002   9.68894412E-001   7.47413641E-001   9.68789919E-001
   1.40000000E+002   9.72039044E-001   7.47422470E-001   9.71951352E-001
   1.45000000E+002   9.74776877E-001   7.47429480E-001   9.74702884E-001
   1.50000000E+002   9.76917221E-001   7.47435103E-001   9.76854447E-001
   1.55000000E+002   9.79343108E-001   7.47439656E-001   9.79289601E-001
   1.60000000E+002   9.81516500E-001   7.47443372E-001   9.81470679E-001
   1.65000000E+002   9.82856336E-001   7.47446428E-001   9.82816919E-001
   1.70000000E+002   9.84581495E-001   7.47448960E-001   9.84547446E-001
   1.75000000E+002   9.86172056E-001   7.47451070E-001   9.86142527E-001
   1.80000000E+002   9.87391333E-001   7.47452839E-001   9.87365627E-001
   1.85000000E+002   9.88512027E-001   7.47454331E-001   9.88489569E-001
   1.90000000E+002   9.89659490E-001   7.47455594E-001   9.89639801E-001
   1.95000000E+002   9.90719038E-001   7.47456671E-001   9.90701722E-001
   2.00000000E+002   9.91655808E-001   7.47457591E-001   9.91640532E-001
   2.05000000E+002   9.92394789E-001   7.47458381E-001   9.92381271E-001
   2.10000000E+002   9.93136351E-001   7.47459063E-001   9.93124356E-001
   2.15000000E+002   9.93712840E-001   7.47459652E-001   9.93702166E-001
   2.20000000E+002   9.94533492E-001   7.47460165E-001   9.94523970E-001
   2.25000000E+002   9.94959730E-001   7.47460611E-001   9.94951215E-001
   2.30000000E+002   9.95484357E-001   7.47461001E-001   9.95476723E-001
   2.35000000E+002   9.95866379E-001   7.47461343E-001   9.95859519E-001
   2.40000000E+002   9.96282932E-001   7.47461644E-001   9.96276754E-001
   2.45000000E+002   9.96770054E-001   7.47461909E-001   9.96764480E-001
