# ./jetvheto -in n3lo-fixed-order/H125-LHC13-R04-mb-0-mt-1725-xmur050-xmuf100-log.fxd -xQ 0.25 -out benchmarks-n3lo-smallR/H125-LHC13-R04-mb-0-mt-1725-xmur050-xmuf100-xQ025-NNLO+NNLLa.R0-0.5.res -scheme a -order 2 -ptmax 500.01 -small-r -fixed_order 2 -loop-mass t -R0 0.5
# process = H    
# collider = pp   
# rts =  13000.000
# M   =    125.000
# muR =     62.500
# muF =    125.000
# Q   =     31.250
# p   =      5.000
# include_c1_squared =   F
# loop_mass  = t   
# alphas(MZ) =    0.11800
# alphas(M) =    0.11264
# alphas(muR) =    0.12516
# Rjet =      0.400
# order = NNLL
# pdf name and set = PDF4LHC15_nnlo_mc.LHgrid,    0
# matching scheme = a
# total cross sections [nb] at LO, NLOdiff, NNLOdiff, N3LOdiff =     0.016868    0.020591    0.008553    0.000949
#----------------------------------------------------------------------
# the lines that follow give the jet-veto efficiencies as a function of pt
#         pt            matched eff      resummed eff     fixed-order eff
   2.00000000E+001   4.73356917E-001   5.03061866E-001   4.73976153E-001
   2.50000000E+001   5.58905200E-001   5.71996597E-001   5.60164869E-001
   3.00000000E+001   6.25918915E-001   6.12555173E-001   6.27003093E-001
   3.50000000E+001   6.79411599E-001   6.34629864E-001   6.80216456E-001
   4.00000000E+001   7.22932523E-001   6.46226094E-001   7.23510277E-001
   4.50000000E+001   7.58673736E-001   6.52354659E-001   7.59082862E-001
   5.00000000E+001   7.88534905E-001   6.55692993E-001   7.88824462E-001
   5.50000000E+001   8.13657395E-001   6.57584486E-001   8.13863409E-001
   6.00000000E+001   8.35148539E-001   6.58700326E-001   8.35297139E-001
   6.50000000E+001   8.53600186E-001   6.59383982E-001   8.53708674E-001
   7.00000000E+001   8.69446532E-001   6.59817445E-001   8.69526715E-001
   7.50000000E+001   8.83291727E-001   6.60100807E-001   8.83351716E-001
   8.00000000E+001   8.95405943E-001   6.60291148E-001   8.95451407E-001
   8.50000000E+001   9.05946332E-001   6.60422130E-001   9.05981154E-001
   9.00000000E+001   9.15288890E-001   6.60514228E-001   9.15315906E-001
   9.50000000E+001   9.23486865E-001   6.60580245E-001   9.23508029E-001
   1.00000000E+002   9.30776964E-001   6.60628396E-001   9.30793701E-001
   1.05000000E+002   9.37265265E-001   6.60664070E-001   9.37278625E-001
   1.10000000E+002   9.42983216E-001   6.60690878E-001   9.42993970E-001
   1.15000000E+002   9.48161182E-001   6.60711286E-001   9.48169910E-001
   1.20000000E+002   9.52760436E-001   6.60727007E-001   9.52767570E-001
   1.25000000E+002   9.56918143E-001   6.60739249E-001   9.56924018E-001
   1.30000000E+002   9.60663982E-001   6.60748878E-001   9.60668851E-001
   1.35000000E+002   9.64039925E-001   6.60756522E-001   9.64043988E-001
   1.40000000E+002   9.67063968E-001   6.60762642E-001   9.67067374E-001
   1.45000000E+002   9.69861312E-001   6.60767581E-001   9.69864187E-001
   1.50000000E+002   9.72332720E-001   6.60771596E-001   9.72335157E-001
   1.55000000E+002   9.74615322E-001   6.60774884E-001   9.74617398E-001
   1.60000000E+002   9.76702887E-001   6.60777592E-001   9.76704664E-001
   1.65000000E+002   9.78582855E-001   6.60779838E-001   9.78584384E-001
   1.70000000E+002   9.80313931E-001   6.60781710E-001   9.80315252E-001
   1.75000000E+002   9.81861222E-001   6.60783279E-001   9.81862367E-001
   1.80000000E+002   9.83297836E-001   6.60784600E-001   9.83298832E-001
   1.85000000E+002   9.84594640E-001   6.60785719E-001   9.84595510E-001
   1.90000000E+002   9.85796408E-001   6.60786670E-001   9.85797170E-001
   1.95000000E+002   9.86911508E-001   6.60787482E-001   9.86912179E-001
   2.00000000E+002   9.87915651E-001   6.60788179E-001   9.87916243E-001
   2.05000000E+002   9.88854572E-001   6.60788778E-001   9.88855095E-001
   2.10000000E+002   9.89700324E-001   6.60789296E-001   9.89700789E-001
   2.15000000E+002   9.90466288E-001   6.60789744E-001   9.90466701E-001
   2.20000000E+002   9.91189728E-001   6.60790135E-001   9.91190097E-001
   2.25000000E+002   9.91848959E-001   6.60790475E-001   9.91849289E-001
   2.30000000E+002   9.92458583E-001   6.60790773E-001   9.92458878E-001
   2.35000000E+002   9.93033543E-001   6.60791035E-001   9.93033808E-001
   2.40000000E+002   9.93543959E-001   6.60791265E-001   9.93544198E-001
   2.45000000E+002   9.94026592E-001   6.60791468E-001   9.94026807E-001
