# ./jetvheto -in n3lo-fixed-order/H125-LHC13-R04-heft-xmur025-xmuf025-log.fxd -xQ 0.50 -out benchmarks-n3lo-smallR/H125-LHC13-R04-heft-xmur025-xmuf025-xQ050-NNLO+NNLLa.R0-0.5.res -scheme a -order 2 -ptmax 500.01 -fixed_order 2 -small-r -R0 0.5
# process = H    
# collider = pp   
# rts =  13000.000
# M   =    125.000
# muR =     31.250
# muF =     31.250
# Q   =     62.500
# p   =      5.000
# include_c1_squared =   F
# loop_mass  = none
# alphas(MZ) =    0.11800
# alphas(M) =    0.11264
# alphas(muR) =    0.14091
# Rjet =      0.400
# order = NNLL
# pdf name and set = PDF4LHC15_nnlo_mc.LHgrid,    0
# matching scheme = a
# total cross sections [nb] at LO, NLOdiff, NNLOdiff, N3LOdiff =     0.017443    0.024066    0.006043   -0.002471
#----------------------------------------------------------------------
# the lines that follow give the jet-veto efficiencies as a function of pt
#         pt            matched eff      resummed eff     fixed-order eff
   2.00000000E+001   4.64653352E-001   4.86450089E-001   4.22450122E-001
   2.50000000E+001   5.48638182E-001   5.58507820E-001   5.11900436E-001
   3.00000000E+001   6.14846469E-001   6.08683400E-001   5.83153040E-001
   3.50000000E+001   6.68094594E-001   6.43164721E-001   6.41162186E-001
   4.00000000E+001   7.11252766E-001   6.66402372E-001   6.88755715E-001
   4.50000000E+001   7.46943319E-001   6.81609079E-001   7.28512618E-001
   5.00000000E+001   7.76662715E-001   6.91195958E-001   7.61836328E-001
   5.50000000E+001   8.01914398E-001   6.96999603E-001   7.90187676E-001
   6.00000000E+001   8.23716882E-001   7.00377187E-001   8.14558742E-001
   6.50000000E+001   8.42560717E-001   7.02276925E-001   8.35469114E-001
   7.00000000E+001   8.59101983E-001   7.03317895E-001   8.53631908E-001
   7.50000000E+001   8.73485101E-001   7.03878261E-001   8.69264939E-001
   8.00000000E+001   8.86344992E-001   7.04176740E-001   8.83079293E-001
   8.50000000E+001   8.97719713E-001   7.04334613E-001   8.95179059E-001
   9.00000000E+001   9.07800912E-001   7.04417531E-001   9.05811087E-001
   9.50000000E+001   9.16693434E-001   7.04460578E-001   9.15123208E-001
   1.00000000E+002   9.24674261E-001   7.04482420E-001   9.23425441E-001
   1.05000000E+002   9.31815658E-001   7.04492998E-001   9.30814627E-001
   1.10000000E+002   9.38223900E-001   7.04497625E-001   9.37415212E-001
   1.15000000E+002   9.43977144E-001   7.04499153E-001   9.43318963E-001
   1.20000000E+002   9.49106977E-001   7.04499114E-001   9.48567413E-001
   1.25000000E+002   9.53638487E-001   7.04498333E-001   9.53193121E-001
   1.30000000E+002   9.57798371E-001   7.04497247E-001   9.57428358E-001
   1.35000000E+002   9.61557954E-001   7.04496085E-001   9.61248660E-001
   1.40000000E+002   9.64901796E-001   7.04494960E-001   9.64641750E-001
   1.45000000E+002   9.67980693E-001   7.04493926E-001   9.67760842E-001
   1.50000000E+002   9.70714977E-001   7.04493001E-001   9.70528143E-001
   1.55000000E+002   9.73201974E-001   7.04492186E-001   9.73042414E-001
   1.60000000E+002   9.75477748E-001   7.04491477E-001   9.75340850E-001
   1.65000000E+002   9.77559279E-001   7.04490862E-001   9.77441308E-001
   1.70000000E+002   9.79424324E-001   7.04490331E-001   9.79322235E-001
   1.75000000E+002   9.81147251E-001   7.04489874E-001   9.81058560E-001
   1.80000000E+002   9.82703592E-001   7.04489479E-001   9.82626252E-001
   1.85000000E+002   9.84088521E-001   7.04489138E-001   9.84020840E-001
   1.90000000E+002   9.85390518E-001   7.04488843E-001   9.85331088E-001
   1.95000000E+002   9.86584661E-001   7.04488588E-001   9.86532310E-001
   2.00000000E+002   9.87657069E-001   7.04488367E-001   9.87610811E-001
   2.05000000E+002   9.88669104E-001   7.04488175E-001   9.88628109E-001
   2.10000000E+002   9.89607099E-001   7.04488007E-001   9.89570667E-001
   2.15000000E+002   9.90432570E-001   7.04487861E-001   9.90400107E-001
   2.20000000E+002   9.91223366E-001   7.04487733E-001   9.91194365E-001
   2.25000000E+002   9.91947606E-001   7.04487621E-001   9.91921635E-001
   2.30000000E+002   9.92590130E-001   7.04487522E-001   9.92566818E-001
   2.35000000E+002   9.93198929E-001   7.04487435E-001   9.93177956E-001
   2.40000000E+002   9.93750001E-001   7.04487359E-001   9.93731092E-001
   2.45000000E+002   9.94267118E-001   7.04487291E-001   9.94250034E-001
