# ./jetvheto -in n3lo-fixed-order/H125-LHC13-R04-mb-475-mt-1725-xmur100-xmuf100-log.fxd -xQ 0.5 -out benchmarks-n3lo-smallR/H125-LHC13-R04-mb-475-mt-1725-xmur100-xmuf100-xQ050-NNLO+NNLLb.R0-0.5.res -scheme b -order 2 -ptmax 500.01 -fixed_order 2 -small-r -loop-mass t+b -R0 0.5
# process = H    
# collider = pp   
# rts =  13000.000
# M   =    125.000
# muR =    125.000
# muF =    125.000
# Q   =     62.500
# p   =      5.000
# include_c1_squared =   F
# loop_mass  = t+b 
# alphas(MZ) =    0.11800
# alphas(M) =    0.11264
# alphas(muR) =    0.11264
# Rjet =      0.400
# order = NNLL
# pdf name and set = PDF4LHC15_nnlo_mc.LHgrid,    0
# matching scheme = b
# total cross sections [nb] at LO, NLOdiff, NNLOdiff, N3LOdiff =     0.012292    0.016994    0.010146    0.003834
#----------------------------------------------------------------------
# the lines that follow give the jet-veto efficiencies as a function of pt
#         pt            matched eff      resummed eff     fixed-order eff
   2.00000000E+001   3.97903572E-001   4.99430816E-001   3.17550639E-001
   2.50000000E+001   4.82813518E-001   5.79517705E-001   4.27790656E-001
   3.00000000E+001   5.52505191E-001   6.36340573E-001   5.12989288E-001
   3.50000000E+001   6.10322781E-001   6.76153147E-001   5.80985186E-001
   4.00000000E+001   6.58386777E-001   7.03528701E-001   6.36189278E-001
   4.50000000E+001   6.98809528E-001   7.21877962E-001   6.81851830E-001
   5.00000000E+001   7.33133170E-001   7.33806531E-001   7.20147070E-001
   5.50000000E+001   7.62409099E-001   7.41317889E-001   7.52478916E-001
   6.00000000E+001   7.87829283E-001   7.45918995E-001   7.80255597E-001
   6.50000000E+001   8.09973128E-001   7.48685905E-001   8.04204225E-001
   7.00000000E+001   8.29312445E-001   7.50338696E-001   8.24914709E-001
   7.50000000E+001   8.46304870E-001   7.51331227E-001   8.42942328E-001
   8.00000000E+001   8.61409464E-001   7.51936563E-001   8.58824881E-001
   8.50000000E+001   8.74687800E-001   7.52314151E-001   8.72688093E-001
   9.00000000E+001   8.86613461E-001   7.52556055E-001   8.85054448E-001
   9.50000000E+001   8.97156205E-001   7.52715476E-001   8.95930965E-001
   1.00000000E+002   9.06575422E-001   7.52823515E-001   9.05604482E-001
   1.05000000E+002   9.15048544E-001   7.52898693E-001   9.14272722E-001
   1.10000000E+002   9.22541835E-001   7.52952287E-001   9.21917006E-001
   1.15000000E+002   9.29355101E-001   7.52991337E-001   9.28847935E-001
   1.20000000E+002   9.35394054E-001   7.53020351E-001   9.34979383E-001
   1.25000000E+002   9.40932758E-001   7.53042283E-001   9.40591281E-001
   1.30000000E+002   9.45914271E-001   7.53059117E-001   9.45631198E-001
   1.35000000E+002   9.50446654E-001   7.53072216E-001   9.50210516E-001
   1.40000000E+002   9.54511240E-001   7.53082532E-001   9.54313076E-001
   1.45000000E+002   9.58274841E-001   7.53090744E-001   9.58107610E-001
   1.50000000E+002   9.61632219E-001   7.53097347E-001   9.61490343E-001
   1.55000000E+002   9.64738799E-001   7.53102702E-001   9.64617823E-001
   1.60000000E+002   9.67549893E-001   7.53107080E-001   9.67446259E-001
   1.65000000E+002   9.70118776E-001   7.53110685E-001   9.70029596E-001
   1.70000000E+002   9.72476144E-001   7.53113675E-001   9.72399079E-001
   1.75000000E+002   9.74605275E-001   7.53116169E-001   9.74538410E-001
   1.80000000E+002   9.76565704E-001   7.53118262E-001   9.76507469E-001
   1.85000000E+002   9.78356226E-001   7.53120028E-001   9.78305324E-001
   1.90000000E+002   9.80004686E-001   7.53121525E-001   9.79960040E-001
   1.95000000E+002   9.81543368E-001   7.53122800E-001   9.81504081E-001
   2.00000000E+002   9.82935975E-001   7.53123891E-001   9.82901295E-001
   2.05000000E+002   9.84230148E-001   7.53124829E-001   9.84199444E-001
   2.10000000E+002   9.85410954E-001   7.53125637E-001   9.85383694E-001
   2.15000000E+002   9.86475023E-001   7.53126337E-001   9.86450755E-001
   2.20000000E+002   9.87479331E-001   7.53126945E-001   9.87457670E-001
   2.25000000E+002   9.88397822E-001   7.53127475E-001   9.88378441E-001
   2.30000000E+002   9.89244813E-001   7.53127938E-001   9.89227429E-001
   2.35000000E+002   9.90037256E-001   7.53128345E-001   9.90021629E-001
   2.40000000E+002   9.90748840E-001   7.53128702E-001   9.90734762E-001
   2.45000000E+002   9.91423745E-001   7.53129017E-001   9.91411035E-001
