# ./jetvheto -in n3lo-fixed-order/H125-LHC13-R04-mb-0-mt-1725-xmur050-xmuf100-log.fxd -xQ 0.25 -out benchmarks-n3lo-smallR/H125-LHC13-R04-mb-0-mt-1725-xmur050-xmuf100-xQ025-N3LO+NNLLa.R0-1.0.res -scheme a -order 2 -ptmax 500.01 -small-r -fixed_order 3 -loop-mass t -R0 1.0
# process = H    
# collider = pp   
# rts =  13000.000
# M   =    125.000
# muR =     62.500
# muF =    125.000
# Q   =     31.250
# p   =      5.000
# include_c1_squared =   F
# loop_mass  = t   
# alphas(MZ) =    0.11800
# alphas(M) =    0.11264
# alphas(muR) =    0.12516
# Rjet =      0.400
# order = NNLL
# pdf name and set = PDF4LHC15_nnlo_mc.LHgrid,    0
# matching scheme = a
# total cross sections [nb] at LO, NLOdiff, NNLOdiff, N3LOdiff =     0.016868    0.020591    0.008553    0.000949
#----------------------------------------------------------------------
# the lines that follow give the jet-veto efficiencies as a function of pt
#         pt            matched eff      resummed eff     fixed-order eff
   2.00000000E+001   4.57781023E-001   5.04160238E-001   4.55384304E-001
   2.50000000E+001   5.42060567E-001   5.72609039E-001   5.40568007E-001
   3.00000000E+001   6.15525172E-001   6.12883795E-001   6.15061825E-001
   3.50000000E+001   6.72146154E-001   6.34806464E-001   6.71924624E-001
   4.00000000E+001   7.17902865E-001   6.46323864E-001   7.17776886E-001
   4.50000000E+001   7.54810810E-001   6.52411112E-001   7.54726893E-001
   5.00000000E+001   7.86308413E-001   6.55727050E-001   7.86256196E-001
   5.50000000E+001   8.13391404E-001   6.57605890E-001   8.13360155E-001
   6.00000000E+001   8.36003910E-001   6.58714278E-001   8.35982829E-001
   6.50000000E+001   8.56551523E-001   6.59393373E-001   8.56539019E-001
   7.00000000E+001   8.73645046E-001   6.59823946E-001   8.73636697E-001
   7.50000000E+001   8.87488437E-001   6.60105420E-001   8.87481736E-001
   8.00000000E+001   8.99662041E-001   6.60294493E-001   8.99656735E-001
   8.50000000E+001   9.10858682E-001   6.60424602E-001   9.10854774E-001
   9.00000000E+001   9.20181213E-001   6.60516086E-001   9.20178063E-001
   9.50000000E+001   9.28905021E-001   6.60581664E-001   9.28902629E-001
   1.00000000E+002   9.35940362E-001   6.60629494E-001   9.35938367E-001
   1.05000000E+002   9.42270906E-001   6.60664931E-001   9.42269256E-001
   1.10000000E+002   9.48016856E-001   6.60691560E-001   9.48015510E-001
   1.15000000E+002   9.53153391E-001   6.60711832E-001   9.53152280E-001
   1.20000000E+002   9.57546436E-001   6.60727448E-001   9.57545500E-001
   1.25000000E+002   9.61248239E-001   6.60739609E-001   9.61247428E-001
   1.30000000E+002   9.65204376E-001   6.60749174E-001   9.65203712E-001
   1.35000000E+002   9.68597030E-001   6.60756767E-001   9.68596472E-001
   1.40000000E+002   9.71343705E-001   6.60762846E-001   9.71343224E-001
   1.45000000E+002   9.74026772E-001   6.60767752E-001   9.74026360E-001
   1.50000000E+002   9.76227260E-001   6.60771741E-001   9.76226901E-001
   1.55000000E+002   9.78830942E-001   6.60775007E-001   9.78830644E-001
   1.60000000E+002   9.80276042E-001   6.60777697E-001   9.80275773E-001
   1.65000000E+002   9.82037579E-001   6.60779928E-001   9.82037344E-001
   1.70000000E+002   9.83525775E-001   6.60781787E-001   9.83525568E-001
   1.75000000E+002   9.85048746E-001   6.60783346E-001   9.85048566E-001
   1.80000000E+002   9.86436945E-001   6.60784658E-001   9.86436787E-001
   1.85000000E+002   9.87677242E-001   6.60785770E-001   9.87677104E-001
   1.90000000E+002   9.88366192E-001   6.60786715E-001   9.88366066E-001
   1.95000000E+002   9.89514582E-001   6.60787521E-001   9.89514472E-001
   2.00000000E+002   9.90450650E-001   6.60788213E-001   9.90450552E-001
   2.05000000E+002   9.91209913E-001   6.60788808E-001   9.91209825E-001
   2.10000000E+002   9.91884450E-001   6.60789323E-001   9.91884371E-001
   2.15000000E+002   9.92737286E-001   6.60789768E-001   9.92737216E-001
   2.20000000E+002   9.93251554E-001   6.60790156E-001   9.93251490E-001
   2.25000000E+002   9.93856379E-001   6.60790494E-001   9.93856322E-001
   2.30000000E+002   9.94422815E-001   6.60790790E-001   9.94422764E-001
   2.35000000E+002   9.94941370E-001   6.60791050E-001   9.94941324E-001
   2.40000000E+002   9.95215949E-001   6.60791279E-001   9.95215907E-001
   2.45000000E+002   9.95711427E-001   6.60791481E-001   9.95711389E-001
