# ./jetvheto -in n3lo-fixed-order/H125-LHC13-R04-heft-xmur025-xmuf025-log.fxd -xQ 0.50 -out benchmarks-n3lo-smallR/H125-LHC13-R04-heft-xmur025-xmuf025-xQ050-NNLO+NNLLa.R0-1.5.res -scheme a -order 2 -ptmax 500.01 -fixed_order 2 -small-r -R0 1.5
# process = H    
# collider = pp   
# rts =  13000.000
# M   =    125.000
# muR =     31.250
# muF =     31.250
# Q   =     62.500
# p   =      5.000
# include_c1_squared =   F
# loop_mass  = none
# alphas(MZ) =    0.11800
# alphas(M) =    0.11264
# alphas(muR) =    0.14091
# Rjet =      0.400
# order = NNLL
# pdf name and set = PDF4LHC15_nnlo_mc.LHgrid,    0
# matching scheme = a
# total cross sections [nb] at LO, NLOdiff, NNLOdiff, N3LOdiff =     0.017443    0.024066    0.006043   -0.002471
#----------------------------------------------------------------------
# the lines that follow give the jet-veto efficiencies as a function of pt
#         pt            matched eff      resummed eff     fixed-order eff
   2.00000000E+001   4.83645023E-001   5.06332652E-001   4.22450122E-001
   2.50000000E+001   5.62623967E-001   5.72745200E-001   5.11900436E-001
   3.00000000E+001   6.25093654E-001   6.18827870E-001   5.83153040E-001
   3.50000000E+001   6.75573849E-001   6.50364889E-001   6.41162186E-001
   4.00000000E+001   7.16686360E-001   6.71493333E-001   6.88755715E-001
   4.50000000E+001   7.50875507E-001   6.85197323E-001   7.28512618E-001
   5.00000000E+001   7.79500785E-001   6.93721716E-001   7.61836328E-001
   5.50000000E+001   8.03963183E-001   6.98780344E-001   7.90187676E-001
   6.00000000E+001   8.25200891E-001   7.01638987E-001   8.14558742E-001
   6.50000000E+001   8.43642254E-001   7.03178388E-001   8.35469114E-001
   7.00000000E+001   8.59897125E-001   7.03968852E-001   8.53631908E-001
   7.50000000E+001   8.74075638E-001   7.04354132E-001   8.69264939E-001
   8.00000000E+001   8.86788614E-001   7.04529186E-001   8.83079293E-001
   8.50000000E+001   8.98056828E-001   7.04599107E-001   8.95179059E-001
   9.00000000E+001   9.08060029E-001   7.04618595E-001   9.05811087E-001
   9.50000000E+001   9.16894798E-001   7.04615322E-001   9.15123208E-001
   1.00000000E+002   9.24832415E-001   7.04602913E-001   9.23425441E-001
   1.05000000E+002   9.31941120E-001   7.04587852E-001   9.30814627E-001
   1.10000000E+002   9.38324366E-001   7.04573063E-001   9.37415212E-001
   1.15000000E+002   9.44058302E-001   7.04559721E-001   9.43318963E-001
   1.20000000E+002   9.49173075E-001   7.04548177E-001   9.48567413E-001
   1.25000000E+002   9.53692729E-001   7.04538404E-001   9.53193121E-001
   1.30000000E+002   9.57843206E-001   7.04530225E-001   9.57428358E-001
   1.35000000E+002   9.61595263E-001   7.04523420E-001   9.61248660E-001
   1.40000000E+002   9.64933036E-001   7.04517770E-001   9.64641750E-001
   1.45000000E+002   9.68007008E-001   7.04513078E-001   9.67760842E-001
   1.50000000E+002   9.70737263E-001   7.04509175E-001   9.70528143E-001
   1.55000000E+002   9.73220947E-001   7.04505921E-001   9.73042414E-001
   1.60000000E+002   9.75493981E-001   7.04503200E-001   9.75340850E-001
   1.65000000E+002   9.77573231E-001   7.04500917E-001   9.77441308E-001
   1.70000000E+002   9.79436367E-001   7.04498994E-001   9.79322235E-001
   1.75000000E+002   9.81157690E-001   7.04497369E-001   9.81058560E-001
   1.80000000E+002   9.82712675E-001   7.04495990E-001   9.82626252E-001
   1.85000000E+002   9.84096454E-001   7.04494817E-001   9.84020840E-001
   1.90000000E+002   9.85397471E-001   7.04493814E-001   9.85331088E-001
   1.95000000E+002   9.86590775E-001   7.04492954E-001   9.86532310E-001
   2.00000000E+002   9.87662463E-001   7.04492214E-001   9.87610811E-001
   2.05000000E+002   9.88673876E-001   7.04491575E-001   9.88628109E-001
   2.10000000E+002   9.89611334E-001   7.04491022E-001   9.89570667E-001
   2.15000000E+002   9.90436338E-001   7.04490541E-001   9.90400107E-001
   2.20000000E+002   9.91226728E-001   7.04490123E-001   9.91194365E-001
   2.25000000E+002   9.91950612E-001   7.04489757E-001   9.91921635E-001
   2.30000000E+002   9.92592826E-001   7.04489436E-001   9.92566818E-001
   2.35000000E+002   9.93201352E-001   7.04489154E-001   9.93177956E-001
   2.40000000E+002   9.93752183E-001   7.04488905E-001   9.93731092E-001
   2.45000000E+002   9.94269087E-001   7.04488686E-001   9.94250034E-001
