# ./jetvheto -in n3lo-fixed-order/H125-LHC13-R04-mb-0-mt-1725-xmur050-xmuf025-log.fxd -xQ 0.25 -out benchmarks-n3lo-smallR/H125-LHC13-R04-mb-0-mt-1725-xmur050-xmuf025-xQ025-N3LO+NNLLa.R0-1.0.res -scheme a -order 2 -ptmax 500.01 -small-r -fixed_order 3 -loop-mass t -R0 1.0
# process = H    
# collider = pp   
# rts =  13000.000
# M   =    125.000
# muR =     62.500
# muF =     31.250
# Q   =     31.250
# p   =      5.000
# include_c1_squared =   F
# loop_mass  = t   
# alphas(MZ) =    0.11800
# alphas(M) =    0.11264
# alphas(muR) =    0.12516
# Rjet =      0.400
# order = NNLL
# pdf name and set = PDF4LHC15_nnlo_mc.LHgrid,    0
# matching scheme = a
# total cross sections [nb] at LO, NLOdiff, NNLOdiff, N3LOdiff =     0.014513    0.020714    0.009723    0.001827
#----------------------------------------------------------------------
# the lines that follow give the jet-veto efficiencies as a function of pt
#         pt            matched eff      resummed eff     fixed-order eff
   2.00000000E+001   4.51306993E-001   4.86065314E-001   4.54817952E-001
   2.50000000E+001   5.41617642E-001   5.57559001E-001   5.43977450E-001
   3.00000000E+001   6.12606430E-001   6.00214271E-001   6.13968468E-001
   3.50000000E+001   6.69333059E-001   6.23657957E-001   6.70085613E-001
   4.00000000E+001   7.15962039E-001   6.36048501E-001   7.16401980E-001
   4.50000000E+001   7.54899153E-001   6.42620305E-001   7.55172391E-001
   5.00000000E+001   7.87289067E-001   6.46207398E-001   7.87462018E-001
   5.50000000E+001   8.15388886E-001   6.48242223E-001   8.15506260E-001
   6.00000000E+001   8.38599586E-001   6.49443445E-001   8.38678261E-001
   6.50000000E+001   8.57289701E-001   6.50179722E-001   8.57340945E-001
   7.00000000E+001   8.74668745E-001   6.50646670E-001   8.74705056E-001
   7.50000000E+001   8.89478641E-001   6.50951975E-001   8.89504737E-001
   8.00000000E+001   9.01835989E-001   6.51157077E-001   9.01854513E-001
   8.50000000E+001   9.13105319E-001   6.51298228E-001   9.13119046E-001
   9.00000000E+001   9.23001835E-001   6.51397481E-001   9.23012141E-001
   9.50000000E+001   9.30415078E-001   6.51468630E-001   9.30422504E-001
   1.00000000E+002   9.38474059E-001   6.51520525E-001   9.38479882E-001
   1.05000000E+002   9.44701108E-001   6.51558974E-001   9.44705520E-001
   1.10000000E+002   9.50987815E-001   6.51587868E-001   9.50991334E-001
   1.15000000E+002   9.56413895E-001   6.51609864E-001   9.56416694E-001
   1.20000000E+002   9.60723065E-001   6.51626808E-001   9.60725255E-001
   1.25000000E+002   9.64430089E-001   6.51640003E-001   9.64431814E-001
   1.30000000E+002   9.68233463E-001   6.51650381E-001   9.68234866E-001
   1.35000000E+002   9.71380136E-001   6.51658620E-001   9.71381270E-001
   1.40000000E+002   9.74348552E-001   6.51665216E-001   9.74349482E-001
   1.45000000E+002   9.77068907E-001   6.51670540E-001   9.77069676E-001
   1.50000000E+002   9.79384975E-001   6.51674868E-001   9.79385612E-001
   1.55000000E+002   9.81508921E-001   6.51678411E-001   9.81509453E-001
   1.60000000E+002   9.83731879E-001   6.51681331E-001   9.83732332E-001
   1.65000000E+002   9.85378045E-001   6.51683751E-001   9.85378426E-001
   1.70000000E+002   9.86737665E-001   6.51685769E-001   9.86737985E-001
   1.75000000E+002   9.88367322E-001   6.51687460E-001   9.88367598E-001
   1.80000000E+002   9.89480238E-001   6.51688884E-001   9.89480472E-001
   1.85000000E+002   9.90749807E-001   6.51690090E-001   9.90750010E-001
   1.90000000E+002   9.91752704E-001   6.51691115E-001   9.91752879E-001
   1.95000000E+002   9.92827084E-001   6.51691991E-001   9.92827236E-001
   2.00000000E+002   9.93584196E-001   6.51692741E-001   9.93584329E-001
   2.05000000E+002   9.94332763E-001   6.51693387E-001   9.94332879E-001
   2.10000000E+002   9.95015275E-001   6.51693945E-001   9.95015376E-001
   2.15000000E+002   9.95765522E-001   6.51694429E-001   9.95765611E-001
   2.20000000E+002   9.96288441E-001   6.51694850E-001   9.96288520E-001
   2.25000000E+002   9.96910756E-001   6.51695217E-001   9.96910826E-001
   2.30000000E+002   9.97350006E-001   6.51695538E-001   9.97350068E-001
   2.35000000E+002   9.97660647E-001   6.51695820E-001   9.97660702E-001
   2.40000000E+002   9.98118045E-001   6.51696068E-001   9.98118094E-001
   2.45000000E+002   9.98503370E-001   6.51696287E-001   9.98503414E-001
