# ./jetvheto -in n3lo-fixed-order/H125-LHC13-R04-mb-0-mt-1725-xmur025-xmuf050-log.fxd -xQ 0.25 -out benchmarks-n3lo-smallR/H125-LHC13-R04-mb-0-mt-1725-xmur025-xmuf050-xQ025-N3LO+NNLLa.R0-0.5.res -scheme a -order 2 -ptmax 500.01 -small-r -fixed_order 3 -loop-mass t -R0 0.5
# process = H    
# collider = pp   
# rts =  13000.000
# M   =    125.000
# muR =     31.250
# muF =     62.500
# Q   =     31.250
# p   =      5.000
# include_c1_squared =   F
# loop_mass  = t   
# alphas(MZ) =    0.11800
# alphas(M) =    0.11264
# alphas(muR) =    0.14091
# Rjet =      0.400
# order = NNLL
# pdf name and set = PDF4LHC15_nnlo_mc.LHgrid,    0
# matching scheme = a
# total cross sections [nb] at LO, NLOdiff, NNLOdiff, N3LOdiff =     0.019855    0.024744    0.005009   -0.002663
#----------------------------------------------------------------------
# the lines that follow give the jet-veto efficiencies as a function of pt
#         pt            matched eff      resummed eff     fixed-order eff
   2.00000000E+001   4.63471162E-001   4.48044175E-001   4.64441433E-001
   2.50000000E+001   5.48021576E-001   5.10773827E-001   5.46982713E-001
   3.00000000E+001   6.22501869E-001   5.47814564E-001   6.21747969E-001
   3.50000000E+001   6.81253406E-001   5.68032265E-001   6.80660873E-001
   4.00000000E+001   7.25200310E-001   5.78672360E-001   7.24684346E-001
   4.50000000E+001   7.65042491E-001   5.84301441E-001   7.64688533E-001
   5.00000000E+001   7.96103149E-001   5.87369552E-001   7.95840800E-001
   5.50000000E+001   8.23359142E-001   5.89108547E-001   8.23173148E-001
   6.00000000E+001   8.45190249E-001   5.90134636E-001   8.45052906E-001
   6.50000000E+001   8.66415835E-001   5.90763381E-001   8.66318719E-001
   7.00000000E+001   8.81404465E-001   5.91162061E-001   8.81329841E-001
   7.50000000E+001   8.95176117E-001   5.91422698E-001   8.95119563E-001
   8.00000000E+001   9.07857455E-001   5.91597779E-001   9.07814578E-001
   8.50000000E+001   9.19165039E-001   5.91718264E-001   9.19132236E-001
   9.00000000E+001   9.29140356E-001   5.91802981E-001   9.29114976E-001
   9.50000000E+001   9.36544841E-001   5.91863709E-001   9.36524636E-001
   1.00000000E+002   9.43979478E-001   5.91908002E-001   9.43963449E-001
   1.05000000E+002   9.49391231E-001   5.91940818E-001   9.49378223E-001
   1.10000000E+002   9.54488840E-001   5.91965479E-001   9.54478252E-001
   1.15000000E+002   9.59547740E-001   5.91984252E-001   9.59539125E-001
   1.20000000E+002   9.64112670E-001   5.91998714E-001   9.64105612E-001
   1.25000000E+002   9.67630190E-001   5.92009975E-001   9.67624322E-001
   1.30000000E+002   9.70600270E-001   5.92018833E-001   9.70595359E-001
   1.35000000E+002   9.73821747E-001   5.92025864E-001   9.73817644E-001
   1.40000000E+002   9.76761685E-001   5.92031494E-001   9.76758237E-001
   1.45000000E+002   9.79227976E-001   5.92036038E-001   9.79225058E-001
   1.50000000E+002   9.80842746E-001   5.92039732E-001   9.80840244E-001
   1.55000000E+002   9.83175752E-001   5.92042756E-001   9.83173622E-001
   1.60000000E+002   9.85242192E-001   5.92045247E-001   9.85240369E-001
   1.65000000E+002   9.86020061E-001   5.92047313E-001   9.86018475E-001
   1.70000000E+002   9.87597469E-001   5.92049035E-001   9.87596097E-001
   1.75000000E+002   9.89071755E-001   5.92050478E-001   9.89070565E-001
   1.80000000E+002   9.90031205E-001   5.92051694E-001   9.90030165E-001
   1.85000000E+002   9.90904956E-001   5.92052723E-001   9.90904044E-001
   1.90000000E+002   9.91918961E-001   5.92053598E-001   9.91918160E-001
   1.95000000E+002   9.92869452E-001   5.92054345E-001   9.92868747E-001
   2.00000000E+002   9.93682888E-001   5.92054986E-001   9.93682266E-001
   2.05000000E+002   9.94218560E-001   5.92055537E-001   9.94218008E-001
   2.10000000E+002   9.94841202E-001   5.92056013E-001   9.94840712E-001
   2.15000000E+002   9.95209551E-001   5.92056426E-001   9.95209113E-001
   2.20000000E+002   9.96061482E-001   5.92056785E-001   9.96061092E-001
   2.25000000E+002   9.96292851E-001   5.92057099E-001   9.96292501E-001
   2.30000000E+002   9.96700121E-001   5.92057373E-001   9.96699807E-001
   2.35000000E+002   9.96933518E-001   5.92057613E-001   9.96933235E-001
   2.40000000E+002   9.97251160E-001   5.92057825E-001   9.97250905E-001
   2.45000000E+002   9.97727728E-001   5.92058012E-001   9.97727498E-001
