# ./jetvheto -in n3lo-fixed-order/H125-LHC13-R04-mb-475-mt-1725-xmur050-xmuf050-log.fxd -xQ 0.75 -out benchmarks-n3lo-smallR/H125-LHC13-R04-mb-475-mt-1725-xmur050-xmuf050-xQ075-N3LO+NNLLa.R0-1.0.res -scheme a -order 2 -ptmax 500.01 -fixed_order 3 -small-r -loop-mass t+b -R0 1.0
# process = H    
# collider = pp   
# rts =  13000.000
# M   =    125.000
# muR =     62.500
# muF =     62.500
# Q   =     93.750
# p   =      5.000
# include_c1_squared =   F
# loop_mass  = t+b 
# alphas(MZ) =    0.11800
# alphas(M) =    0.11264
# alphas(muR) =    0.12516
# Rjet =      0.400
# order = NNLL
# pdf name and set = PDF4LHC15_nnlo_mc.LHgrid,    0
# matching scheme = a
# total cross sections [nb] at LO, NLOdiff, NNLOdiff, N3LOdiff =     0.014147    0.020254    0.008998    0.001413
#----------------------------------------------------------------------
# the lines that follow give the jet-veto efficiencies as a function of pt
#         pt            matched eff      resummed eff     fixed-order eff
   2.00000000E+001   4.65759622E-001   5.24458614E-001   4.41074844E-001
   2.50000000E+001   5.51436860E-001   6.00122234E-001   5.26291803E-001
   3.00000000E+001   6.23615485E-001   6.52957272E-001   5.99588615E-001
   3.50000000E+001   6.80935210E-001   6.89560807E-001   6.58104134E-001
   4.00000000E+001   7.25077796E-001   7.14480937E-001   7.03699261E-001
   4.50000000E+001   7.63546354E-001   7.30907950E-001   7.43908515E-001
   5.00000000E+001   7.94034402E-001   7.41122896E-001   7.76267730E-001
   5.50000000E+001   8.20319755E-001   7.46806284E-001   8.04438345E-001
   6.00000000E+001   8.41666628E-001   7.49215400E-001   8.27667847E-001
   6.50000000E+001   8.61334442E-001   7.49321004E-001   8.49073502E-001
   7.00000000E+001   8.76328450E-001   7.47883363E-001   8.65767048E-001
   7.50000000E+001   8.89699902E-001   7.45496082E-001   8.80674091E-001
   8.00000000E+001   9.01804032E-001   7.42614207E-001   8.94138038E-001
   8.50000000E+001   9.12578233E-001   7.39571450E-001   9.06106835E-001
   9.00000000E+001   9.22047187E-001   7.36597084E-001   9.16611008E-001
   9.50000000E+001   9.29609947E-001   7.33832795E-001   9.25078477E-001
   1.00000000E+002   9.36880929E-001   7.31353873E-001   9.33101787E-001
   1.05000000E+002   9.42724139E-001   7.29187371E-001   9.39585604E-001
   1.10000000E+002   9.48105739E-001   7.27328713E-001   9.45495190E-001
   1.15000000E+002   9.53271881E-001   7.25754908E-001   9.51094105E-001
   1.20000000E+002   9.57928556E-001   7.24434111E-001   9.56107678E-001
   1.25000000E+002   9.61820180E-001   7.23331835E-001   9.60296277E-001
   1.30000000E+002   9.65216940E-001   7.22414860E-001   9.63938023E-001
   1.35000000E+002   9.68626073E-001   7.21653026E-001   9.67546891E-001
   1.40000000E+002   9.71744267E-001   7.21019983E-001   9.70830250E-001
   1.45000000E+002   9.74441190E-001   7.20493313E-001   9.73664645E-001
   1.50000000E+002   9.76548941E-001   7.20054263E-001   9.75887820E-001
   1.55000000E+002   9.78978159E-001   7.19687320E-001   9.78411529E-001
   1.60000000E+002   9.81155481E-001   7.19379738E-001   9.80668095E-001
   1.65000000E+002   9.82493514E-001   7.19121088E-001   9.82074144E-001
   1.70000000E+002   9.84213250E-001   7.18902853E-001   9.83850040E-001
   1.75000000E+002   9.85836376E-001   7.18718081E-001   9.85520635E-001
   1.80000000E+002   9.87072417E-001   7.18561098E-001   9.86797346E-001
   1.85000000E+002   9.88215840E-001   7.18427259E-001   9.87975392E-001
   1.90000000E+002   9.89383350E-001   7.18312760E-001   9.89172337E-001
   1.95000000E+002   9.90460569E-001   7.18214475E-001   9.90274812E-001
   2.00000000E+002   9.91410342E-001   7.18129828E-001   9.91246363E-001
   2.05000000E+002   9.92167501E-001   7.18056692E-001   9.92022417E-001
   2.10000000E+002   9.92924181E-001   7.17993303E-001   9.92795408E-001
   2.15000000E+002   9.93517451E-001   7.17938195E-001   9.93402921E-001
   2.20000000E+002   9.94361598E-001   7.17890145E-001   9.94259310E-001
   2.25000000E+002   9.94797793E-001   7.17848129E-001   9.94706379E-001
   2.30000000E+002   9.95331291E-001   7.17811288E-001   9.95249343E-001
   2.35000000E+002   9.95727597E-001   7.17778898E-001   9.95654001E-001
   2.40000000E+002   9.96154244E-001   7.17750349E-001   9.96087982E-001
   2.45000000E+002   9.96645521E-001   7.17725122E-001   9.96585702E-001
