# ./jetvheto -in n3lo-fixed-order/H125-LHC13-R04-mb-0-mt-1725-xmur025-xmuf025-log.fxd -xQ 0.25 -out benchmarks-n3lo-smallR/H125-LHC13-R04-mb-0-mt-1725-xmur025-xmuf025-xQ025-N3LO+NNLLb.R0-1.0.res -scheme b -order 2 -ptmax 500.01 -small-r -fixed_order 3 -loop-mass t -R0 1.0
# process = H    
# collider = pp   
# rts =  13000.000
# M   =    125.000
# muR =     31.250
# muF =     31.250
# Q   =     31.250
# p   =      5.000
# include_c1_squared =   F
# loop_mass  = t   
# alphas(MZ) =    0.11800
# alphas(M) =    0.11264
# alphas(muR) =    0.14091
# Rjet =      0.400
# order = NNLL
# pdf name and set = PDF4LHC15_nnlo_mc.LHgrid,    0
# matching scheme = b
# total cross sections [nb] at LO, NLOdiff, NNLOdiff, N3LOdiff =     0.018140    0.025356    0.006043   -0.002471
#----------------------------------------------------------------------
# the lines that follow give the jet-veto efficiencies as a function of pt
#         pt            matched eff      resummed eff     fixed-order eff
   2.00000000E+001   4.75489945E-001   4.45267489E-001   4.87197444E-001
   2.50000000E+001   5.66941688E-001   5.08371496E-001   5.72808377E-001
   3.00000000E+001   6.37359698E-001   5.45833071E-001   6.40033654E-001
   3.50000000E+001   6.92538941E-001   5.66355192E-001   6.93667740E-001
   4.00000000E+001   7.37788236E-001   5.77180148E-001   7.38265029E-001
   4.50000000E+001   7.75681580E-001   5.82915065E-001   7.75885549E-001
   5.00000000E+001   8.06886737E-001   5.86043360E-001   8.06967537E-001
   5.50000000E+001   8.34480859E-001   5.87817279E-001   8.34514649E-001
   6.00000000E+001   8.56650969E-001   5.88864257E-001   8.56658691E-001
   6.50000000E+001   8.73499637E-001   5.89505908E-001   8.73491663E-001
   7.00000000E+001   8.90095984E-001   5.89912812E-001   8.90085568E-001
   7.50000000E+001   9.04116049E-001   5.90178844E-001   9.04105497E-001
   8.00000000E+001   9.15236154E-001   5.90357557E-001   9.15225465E-001
   8.50000000E+001   9.25767387E-001   5.90480544E-001   9.25758034E-001
   9.00000000E+001   9.34951783E-001   5.90567023E-001   9.34943752E-001
   9.50000000E+001   9.40860100E-001   5.90629015E-001   9.40852628E-001
   1.00000000E+002   9.48581757E-001   5.90674230E-001   9.48575677E-001
   1.05000000E+002   9.53819537E-001   5.90707730E-001   9.53814240E-001
   1.10000000E+002   9.59777020E-001   5.90732904E-001   9.59772663E-001
   1.15000000E+002   9.64722255E-001   5.90752069E-001   9.64718601E-001
   1.20000000E+002   9.68217576E-001   5.90766832E-001   9.68214412E-001
   1.25000000E+002   9.71135504E-001   5.90778328E-001   9.71132765E-001
   1.30000000E+002   9.74521915E-001   5.90787370E-001   9.74519594E-001
   1.35000000E+002   9.77100520E-001   5.90794549E-001   9.77098521E-001
   1.40000000E+002   9.79641528E-001   5.90800296E-001   9.79639817E-001
   1.45000000E+002   9.81973510E-001   5.90804934E-001   9.81972039E-001
   1.50000000E+002   9.83865293E-001   5.90808705E-001   9.83864021E-001
   1.55000000E+002   9.85620036E-001   5.90811792E-001   9.85618934E-001
   1.60000000E+002   9.87701817E-001   5.90814336E-001   9.87700872E-001
   1.65000000E+002   9.88955383E-001   5.90816444E-001   9.88954556E-001
   1.70000000E+002   9.89883816E-001   5.90818202E-001   9.89883087E-001
   1.75000000E+002   9.91393036E-001   5.90819676E-001   9.91392403E-001
   1.80000000E+002   9.92131525E-001   5.90820917E-001   9.92130965E-001
   1.85000000E+002   9.93252897E-001   5.90821967E-001   9.93252407E-001
   1.90000000E+002   9.93995380E-001   5.90822861E-001   9.93994946E-001
   1.95000000E+002   9.94937776E-001   5.90823623E-001   9.94937393E-001
   2.00000000E+002   9.95433477E-001   5.90824277E-001   9.95433136E-001
   2.05000000E+002   9.95969299E-001   5.90824840E-001   9.95968995E-001
   2.10000000E+002   9.96450769E-001   5.90825326E-001   9.96450497E-001
   2.15000000E+002   9.97142640E-001   5.90825748E-001   9.97142399E-001
   2.20000000E+002   9.97476366E-001   5.90826114E-001   9.97476149E-001
   2.25000000E+002   9.98020894E-001   5.90826434E-001   9.98020700E-001
   2.30000000E+002   9.98314439E-001   5.90826714E-001   9.98314264E-001
   2.35000000E+002   9.98428362E-001   5.90826959E-001   9.98428204E-001
   2.40000000E+002   9.98835834E-001   5.90827176E-001   9.98835691E-001
   2.45000000E+002   9.99142274E-001   5.90827366E-001   9.99142145E-001
