# ./jetvheto -in n3lo-fixed-order/H125-LHC13-R04-heft-xmur100-xmuf100-log.fxd -xQ 0.333 -out benchmarks-n3lo-smallR/H125-LHC13-R04-heft-xmur100-xmuf100-xQ033-NNLO+NNLLa.R0-2.0.res -scheme a -order 2 -ptmax 500.01 -fixed_order 2 -small-r -R0 2.0
# process = H    
# collider = pp   
# rts =  13000.000
# M   =    125.000
# muR =    125.000
# muF =    125.000
# Q   =     41.625
# p   =      5.000
# include_c1_squared =   F
# loop_mass  = none
# alphas(MZ) =    0.11800
# alphas(M) =    0.11264
# alphas(muR) =    0.11264
# Rjet =      0.400
# order = NNLL
# pdf name and set = PDF4LHC15_nnlo_mc.LHgrid,    0
# matching scheme = a
# total cross sections [nb] at LO, NLOdiff, NNLOdiff, N3LOdiff =     0.012945    0.016716    0.010146    0.003834
#----------------------------------------------------------------------
# the lines that follow give the jet-veto efficiencies as a function of pt
#         pt            matched eff      resummed eff     fixed-order eff
   2.00000000E+001   4.87999623E-001   5.24944016E-001   5.03121755E-001
   2.50000000E+001   5.73645079E-001   6.02721612E-001   5.84489186E-001
   3.00000000E+001   6.40170131E-001   6.55158036E-001   6.47024325E-001
   3.50000000E+001   6.92370523E-001   6.89043378E-001   6.96432698E-001
   4.00000000E+001   7.34159130E-001   7.10029708E-001   7.36537087E-001
   4.50000000E+001   7.68073445E-001   7.22648029E-001   7.69498888E-001
   5.00000000E+001   7.96164923E-001   7.30160307E-001   7.97057559E-001
   5.50000000E+001   8.19711511E-001   7.34667938E-001   8.20296043E-001
   6.00000000E+001   8.39780596E-001   7.37424954E-001   8.40179538E-001
   6.50000000E+001   8.57030544E-001   7.39153164E-001   8.57311575E-001
   7.00000000E+001   8.71866875E-001   7.40265102E-001   8.72069843E-001
   7.50000000E+001   8.84806425E-001   7.40999015E-001   8.84956099E-001
   8.00000000E+001   8.96124756E-001   7.41495185E-001   8.96237121E-001
   8.50000000E+001   9.06017119E-001   7.41838129E-001   9.06102675E-001
   9.00000000E+001   9.14814039E-001   7.42080008E-001   9.14880120E-001
   9.50000000E+001   9.22552490E-001   7.42253772E-001   9.22604114E-001
   1.00000000E+002   9.29432257E-001   7.42380710E-001   9.29473021E-001
   1.05000000E+002   9.35570650E-001   7.42474866E-001   9.35603161E-001
   1.10000000E+002   9.41027236E-001   7.42545684E-001   9.41053390E-001
   1.15000000E+002   9.45954736E-001   7.42599630E-001   9.45975962E-001
   1.20000000E+002   9.50363569E-001   7.42641207E-001   9.50380922E-001
   1.25000000E+002   9.54339787E-001   7.42673597E-001   9.54354081E-001
   1.30000000E+002   9.57922104E-001   7.42699081E-001   9.57933958E-001
   1.35000000E+002   9.61185985E-001   7.42719315E-001   9.61195880E-001
   1.40000000E+002   9.64101934E-001   7.42735520E-001   9.64110237E-001
   1.45000000E+002   9.66803992E-001   7.42748599E-001   9.66811003E-001
   1.50000000E+002   9.69210707E-001   7.42759234E-001   9.69216654E-001
   1.55000000E+002   9.71420128E-001   7.42767942E-001   9.71425199E-001
   1.60000000E+002   9.73454748E-001   7.42775117E-001   9.73459094E-001
   1.65000000E+002   9.75298116E-001   7.42781065E-001   9.75301855E-001
   1.70000000E+002   9.77007365E-001   7.42786024E-001   9.77010596E-001
   1.75000000E+002   9.78551540E-001   7.42790181E-001   9.78554343E-001
   1.80000000E+002   9.79988256E-001   7.42793683E-001   9.79990696E-001
   1.85000000E+002   9.81294294E-001   7.42796647E-001   9.81296426E-001
   1.90000000E+002   9.82502057E-001   7.42799167E-001   9.82503927E-001
   1.95000000E+002   9.83636641E-001   7.42801319E-001   9.83638287E-001
   2.00000000E+002   9.84673755E-001   7.42803164E-001   9.84675207E-001
   2.05000000E+002   9.85637800E-001   7.42804752E-001   9.85639085E-001
   2.10000000E+002   9.86521879E-001   7.42806124E-001   9.86523019E-001
   2.15000000E+002   9.87329966E-001   7.42807314E-001   9.87330981E-001
   2.20000000E+002   9.88091313E-001   7.42808348E-001   9.88092219E-001
   2.25000000E+002   9.88794173E-001   7.42809250E-001   9.88794983E-001
   2.30000000E+002   9.89450335E-001   7.42810040E-001   9.89451061E-001
   2.35000000E+002   9.90075154E-001   7.42810733E-001   9.90075806E-001
   2.40000000E+002   9.90640267E-001   7.42811343E-001   9.90640855E-001
   2.45000000E+002   9.91174425E-001   7.42811882E-001   9.91174955E-001
