# ./jetvheto -in n3lo-fixed-order/H125-LHC13-R04-mb-475-mt-1725-xmur200-xmuf200-log.fxd -xQ 0.5 -out benchmarks-n3lo-smallR/H125-LHC13-R04-mb-475-mt-1725-xmur200-xmuf200-xQ050-NNLO+NNLLb.R0-2.0.res -scheme b -order 2 -ptmax 500.01 -fixed_order 2 -small-r -loop-mass t+b -R0 2.0
# process = H    
# collider = pp   
# rts =  13000.000
# M   =    125.000
# muR =    250.000
# muF =    250.000
# Q   =     62.500
# p   =      5.000
# include_c1_squared =   F
# loop_mass  = t+b 
# alphas(MZ) =    0.11800
# alphas(M) =    0.11264
# alphas(muR) =    0.10244
# Rjet =      0.400
# order = NNLL
# pdf name and set = PDF4LHC15_nnlo_mc.LHgrid,    0
# matching scheme = b
# total cross sections [nb] at LO, NLOdiff, NNLOdiff, N3LOdiff =     0.010658    0.014649    0.010464    0.005358
#----------------------------------------------------------------------
# the lines that follow give the jet-veto efficiencies as a function of pt
#         pt            matched eff      resummed eff     fixed-order eff
   2.00000000E+001   4.16549541E-001   5.37380059E-001   3.42914779E-001
   2.50000000E+001   5.00669351E-001   6.18108674E-001   4.51588865E-001
   3.00000000E+001   5.69008432E-001   6.75052319E-001   5.34323891E-001
   3.50000000E+001   6.25428364E-001   7.14736229E-001   5.99878022E-001
   4.00000000E+001   6.72252253E-001   7.41867666E-001   6.52928428E-001
   4.50000000E+001   7.11451802E-001   7.59924260E-001   6.96647108E-001
   5.00000000E+001   7.44610214E-001   7.71553462E-001   7.33209386E-001
   5.50000000E+001   7.72850530E-001   7.78788597E-001   7.64082718E-001
   6.00000000E+001   7.97060602E-001   7.83152320E-001   7.90335720E-001
   6.50000000E+001   8.18139769E-001   7.85725011E-001   8.12993295E-001
   7.00000000E+001   8.36601719E-001   7.87224705E-001   8.32664659E-001
   7.50000000E+001   8.52779193E-001   7.88099551E-001   8.49760719E-001
   8.00000000E+001   8.67125879E-001   7.88615744E-001   8.64801607E-001
   8.50000000E+001   8.79761167E-001   7.88926353E-001   8.77960638E-001
   9.00000000E+001   8.90994792E-001   7.89118011E-001   8.89590152E-001
   9.50000000E+001   9.00978908E-001   7.89239617E-001   8.99874538E-001
   1.00000000E+002   9.09842099E-001   7.89319044E-001   9.08966811E-001
   1.05000000E+002   9.17867360E-001   7.89372444E-001   9.17167984E-001
   1.10000000E+002   9.25033093E-001   7.89409334E-001   9.24469864E-001
   1.15000000E+002   9.31490092E-001   7.89435467E-001   9.31032989E-001
   1.20000000E+002   9.37285423E-001   7.89454408E-001   9.36911738E-001
   1.25000000E+002   9.42502025E-001   7.89468422E-001   9.42194383E-001
   1.30000000E+002   9.47218294E-001   7.89478982E-001   9.46963336E-001
   1.35000000E+002   9.51519344E-001   7.89487070E-001   9.51306719E-001
   1.40000000E+002   9.55410515E-001   7.89493355E-001   9.55232133E-001
   1.45000000E+002   9.58937781E-001   7.89498302E-001   9.58787286E-001
   1.50000000E+002   9.62163220E-001   7.89502241E-001   9.62035576E-001
   1.55000000E+002   9.65094341E-001   7.89505410E-001   9.64985533E-001
   1.60000000E+002   9.67789146E-001   7.89507984E-001   9.67695956E-001
   1.65000000E+002   9.70250744E-001   7.89510091E-001   9.70170571E-001
   1.70000000E+002   9.72493816E-001   7.89511829E-001   9.72424549E-001
   1.75000000E+002   9.74515572E-001   7.89513273E-001   9.74455487E-001
   1.80000000E+002   9.76407032E-001   7.89514481E-001   9.76354712E-001
   1.85000000E+002   9.78143292E-001   7.89515497E-001   9.78097567E-001
   1.90000000E+002   9.79712613E-001   7.89516356E-001   9.79672515E-001
   1.95000000E+002   9.81167827E-001   7.89517086E-001   9.81132549E-001
   2.00000000E+002   9.82494207E-001   7.89517709E-001   9.82463071E-001
   2.05000000E+002   9.83727380E-001   7.89518244E-001   9.83699819E-001
   2.10000000E+002   9.84866879E-001   7.89518704E-001   9.84842413E-001
   2.15000000E+002   9.85916490E-001   7.89519102E-001   9.85894711E-001
   2.20000000E+002   9.86881862E-001   7.89519448E-001   9.86862425E-001
   2.25000000E+002   9.87767284E-001   7.89519749E-001   9.87749895E-001
   2.30000000E+002   9.88599570E-001   7.89520011E-001   9.88583976E-001
   2.35000000E+002   9.89376037E-001   7.89520242E-001   9.89362019E-001
   2.40000000E+002   9.90062903E-001   7.89520444E-001   9.90050275E-001
   2.45000000E+002   9.90720967E-001   7.89520622E-001   9.90709568E-001
