# ./jetvheto -in n3lo-fixed-order/H125-LHC13-R04-heft-xmur050-xmuf050-log.fxd -xQ 0.333 -out benchmarks-n3lo-smallR/H125-LHC13-R04-heft-xmur050-xmuf050-xQ033-NNLO+NNLLb.R0-1.5.res -scheme b -order 2 -ptmax 500.01 -fixed_order 2 -small-r -R0 1.5
# process = H    
# collider = pp   
# rts =  13000.000
# M   =    125.000
# muR =     62.500
# muF =     62.500
# Q   =     41.625
# p   =      5.000
# include_c1_squared =   F
# loop_mass  = none
# alphas(MZ) =    0.11800
# alphas(M) =    0.11264
# alphas(muR) =    0.12516
# Rjet =      0.400
# order = NNLL
# pdf name and set = PDF4LHC15_nnlo_mc.LHgrid,    0
# matching scheme = b
# total cross sections [nb] at LO, NLOdiff, NNLOdiff, N3LOdiff =     0.015055    0.019611    0.008998    0.001413
#----------------------------------------------------------------------
# the lines that follow give the jet-veto efficiencies as a function of pt
#         pt            matched eff      resummed eff     fixed-order eff
   2.00000000E+001   3.95965433E-001   4.89953676E-001   3.20844325E-001
   2.50000000E+001   4.76652717E-001   5.64733372E-001   4.29272444E-001
   3.00000000E+001   5.43730723E-001   6.15405236E-001   5.13978769E-001
   3.50000000E+001   5.99984252E-001   6.48290883E-001   5.81442017E-001
   4.00000000E+001   6.47986751E-001   6.68742001E-001   6.36470582E-001
   4.50000000E+001   6.89242109E-001   6.81082896E-001   6.82049408E-001
   5.00000000E+001   7.24862036E-001   6.88450253E-001   7.20304754E-001
   5.50000000E+001   7.55656833E-001   6.92879508E-001   7.52707770E-001
   6.00000000E+001   7.82247428E-001   6.95592092E-001   7.80293093E-001
   6.50000000E+001   8.05421640E-001   6.97293984E-001   8.04094553E-001
   7.00000000E+001   8.25721605E-001   6.98389650E-001   8.24799203E-001
   7.50000000E+001   8.43344995E-001   6.99113121E-001   8.42689242E-001
   8.00000000E+001   8.58878782E-001   6.99602366E-001   8.58403155E-001
   8.50000000E+001   8.72600024E-001   6.99940591E-001   8.72248607E-001
   9.00000000E+001   8.84754237E-001   7.00179172E-001   8.84490214E-001
   9.50000000E+001   8.95445370E-001   7.00350585E-001   8.95243884E-001
   1.00000000E+002   9.04978032E-001   7.00475815E-001   9.04822178E-001
   1.05000000E+002   9.13419479E-001   7.00568708E-001   9.13297358E-001
   1.10000000E+002   9.21006190E-001   7.00638579E-001   9.20909416E-001
   1.15000000E+002   9.27772438E-001   7.00691806E-001   9.27694941E-001
   1.20000000E+002   9.33873925E-001   7.00732829E-001   9.33811268E-001
   1.25000000E+002   9.39373441E-001   7.00764788E-001   9.39322340E-001
   1.30000000E+002   9.44293426E-001   7.00789933E-001   9.44251399E-001
   1.35000000E+002   9.48770509E-001   7.00809900E-001   9.48735691E-001
   1.40000000E+002   9.52826855E-001   7.00825889E-001   9.52797807E-001
   1.45000000E+002   9.56463848E-001   7.00838795E-001   9.56439457E-001
   1.50000000E+002   9.59806879E-001   7.00849289E-001   9.59786275E-001
   1.55000000E+002   9.62821849E-001   7.00857881E-001   9.62804347E-001
   1.60000000E+002   9.65594615E-001   7.00864961E-001   9.65579670E-001
   1.65000000E+002   9.68094835E-001   7.00870830E-001   9.68082008E-001
   1.70000000E+002   9.70408886E-001   7.00875724E-001   9.70397828E-001
   1.75000000E+002   9.72542129E-001   7.00879826E-001   9.72532555E-001
   1.80000000E+002   9.74468927E-001   7.00883281E-001   9.74460602E-001
   1.85000000E+002   9.76247063E-001   7.00886206E-001   9.76239797E-001
   1.90000000E+002   9.77886916E-001   7.00888693E-001   9.77880551E-001
   1.95000000E+002   9.79380881E-001   7.00890817E-001   9.79375286E-001
   2.00000000E+002   9.80759573E-001   7.00892637E-001   9.80754640E-001
   2.05000000E+002   9.82047118E-001   7.00894205E-001   9.82042753E-001
   2.10000000E+002   9.83217225E-001   7.00895558E-001   9.83213352E-001
   2.15000000E+002   9.84315551E-001   7.00896732E-001   9.84312105E-001
   2.20000000E+002   9.85332481E-001   7.00897752E-001   9.85329407E-001
   2.25000000E+002   9.86244264E-001   7.00898643E-001   9.86241514E-001
   2.30000000E+002   9.87144292E-001   7.00899422E-001   9.87141826E-001
   2.35000000E+002   9.87937849E-001   7.00900106E-001   9.87935633E-001
   2.40000000E+002   9.88689807E-001   7.00900708E-001   9.88687810E-001
   2.45000000E+002   9.89388799E-001   7.00901239E-001   9.89386996E-001
