# ./jetvheto -in n3lo-fixed-order/H125-LHC13-R04-mb-0-mt-1725-xmur025-xmuf025-log.fxd -xQ 0.25 -out benchmarks-n3lo-smallR/H125-LHC13-R04-mb-0-mt-1725-xmur025-xmuf025-xQ025-NNLO+NNLLa.R0-0.5.res -scheme a -order 2 -ptmax 500.01 -small-r -fixed_order 2 -loop-mass t -R0 0.5
# process = H    
# collider = pp   
# rts =  13000.000
# M   =    125.000
# muR =     31.250
# muF =     31.250
# Q   =     31.250
# p   =      5.000
# include_c1_squared =   F
# loop_mass  = t   
# alphas(MZ) =    0.11800
# alphas(M) =    0.11264
# alphas(muR) =    0.14091
# Rjet =      0.400
# order = NNLL
# pdf name and set = PDF4LHC15_nnlo_mc.LHgrid,    0
# matching scheme = a
# total cross sections [nb] at LO, NLOdiff, NNLOdiff, N3LOdiff =     0.018140    0.025356    0.006043   -0.002471
#----------------------------------------------------------------------
# the lines that follow give the jet-veto efficiencies as a function of pt
#         pt            matched eff      resummed eff     fixed-order eff
   2.00000000E+001   4.37617411E-001   4.43783340E-001   4.30690105E-001
   2.50000000E+001   5.24476222E-001   5.07556784E-001   5.20586602E-001
   3.00000000E+001   5.94151450E-001   5.45400735E-001   5.92014950E-001
   3.50000000E+001   6.51209961E-001   5.66124467E-001   6.50064662E-001
   4.00000000E+001   6.98316919E-001   5.77052925E-001   6.97703316E-001
   4.50000000E+001   7.37635478E-001   5.82841771E-001   7.37303585E-001
   5.00000000E+001   7.70804031E-001   5.85999198E-001   7.70617108E-001
   5.50000000E+001   7.98918247E-001   5.87789545E-001   7.98809609E-001
   6.00000000E+001   8.23016232E-001   5.88846187E-001   8.22950709E-001
   6.50000000E+001   8.43792454E-001   5.89493748E-001   8.43751279E-001
   7.00000000E+001   8.61823879E-001   5.89904396E-001   8.61797081E-001
   7.50000000E+001   8.77313116E-001   5.90172873E-001   8.77294866E-001
   8.00000000E+001   8.91033191E-001   5.90353228E-001   8.91020454E-001
   8.50000000E+001   9.02987246E-001   5.90477345E-001   9.02978081E-001
   9.00000000E+001   9.13546127E-001   5.90564618E-001   9.13539336E-001
   9.50000000E+001   9.22750305E-001   5.90627179E-001   9.22745123E-001
   1.00000000E+002   9.30971955E-001   5.90672809E-001   9.30967926E-001
   1.05000000E+002   9.38299365E-001   5.90706616E-001   9.38296175E-001
   1.10000000E+002   9.44772182E-001   5.90732021E-001   9.44769617E-001
   1.15000000E+002   9.50611462E-001   5.90751362E-001   9.50609371E-001
   1.20000000E+002   9.55809486E-001   5.90766260E-001   9.55807756E-001
   1.25000000E+002   9.60374330E-001   5.90777862E-001   9.60372878E-001
   1.30000000E+002   9.64531828E-001   5.90786987E-001   9.64530604E-001
   1.35000000E+002   9.68262130E-001   5.90794231E-001   9.68261090E-001
   1.40000000E+002   9.71615734E-001   5.90800031E-001   9.71614842E-001
   1.45000000E+002   9.74680786E-001   5.90804712E-001   9.74680018E-001
   1.50000000E+002   9.77396902E-001   5.90808518E-001   9.77396235E-001
   1.55000000E+002   9.79852098E-001   5.90811633E-001   9.79851516E-001
   1.60000000E+002   9.82095455E-001   5.90814200E-001   9.82094946E-001
   1.65000000E+002   9.84129028E-001   5.90816328E-001   9.84128581E-001
   1.70000000E+002   9.85932343E-001   5.90818102E-001   9.85931948E-001
   1.75000000E+002   9.87581462E-001   5.90819589E-001   9.87581113E-001
   1.80000000E+002   9.89076077E-001   5.90820842E-001   9.89075767E-001
   1.85000000E+002   9.90410154E-001   5.90821902E-001   9.90409877E-001
   1.90000000E+002   9.91647729E-001   5.90822803E-001   9.91647482E-001
   1.95000000E+002   9.92783166E-001   5.90823573E-001   9.92782944E-001
   2.00000000E+002   9.93786461E-001   5.90824233E-001   9.93786262E-001
   2.05000000E+002   9.94721781E-001   5.90824801E-001   9.94721603E-001
   2.10000000E+002   9.95580883E-001   5.90825291E-001   9.95580722E-001
   2.15000000E+002   9.96308699E-001   5.90825717E-001   9.96308554E-001
   2.20000000E+002   9.97002162E-001   5.90826087E-001   9.97002030E-001
   2.25000000E+002   9.97641187E-001   5.90826409E-001   9.97641068E-001
   2.30000000E+002   9.98194685E-001   5.90826692E-001   9.98194576E-001
   2.35000000E+002   9.98698196E-001   5.90826940E-001   9.98698098E-001
   2.40000000E+002   9.99145176E-001   5.90827158E-001   9.99145086E-001
   2.45000000E+002   9.99563661E-001   5.90827350E-001   9.99563579E-001
