# ./jetvheto -in n3lo-fixed-order/H125-LHC13-R04-mb-475-mt-1725-xmur100-xmuf200-log.fxd -xQ 0.5 -out benchmarks-n3lo-smallR/H125-LHC13-R04-mb-475-mt-1725-xmur100-xmuf200-xQ050-NNLO+NNLLa.R0-1.5.res -scheme a -order 2 -ptmax 500.01 -fixed_order 2 -small-r -loop-mass t+b -R0 1.5
# process = H    
# collider = pp   
# rts =  13000.000
# M   =    125.000
# muR =    125.000
# muF =    250.000
# Q   =     62.500
# p   =      5.000
# include_c1_squared =   F
# loop_mass  = t+b 
# alphas(MZ) =    0.11800
# alphas(M) =    0.11264
# alphas(muR) =    0.11264
# Rjet =      0.400
# order = NNLL
# pdf name and set = PDF4LHC15_nnlo_mc.LHgrid,    0
# matching scheme = a
# total cross sections [nb] at LO, NLOdiff, NNLOdiff, N3LOdiff =     0.012791    0.017144    0.009991    0.003297
#----------------------------------------------------------------------
# the lines that follow give the jet-veto efficiencies as a function of pt
#         pt            matched eff      resummed eff     fixed-order eff
   2.00000000E+001   4.92288953E-001   5.21413861E-001   4.96990142E-001
   2.50000000E+001   5.79648837E-001   5.98417471E-001   5.79781046E-001
   3.00000000E+001   6.47395747E-001   6.52303880E-001   6.43205554E-001
   3.50000000E+001   7.00715932E-001   6.89534832E-001   6.93573535E-001
   4.00000000E+001   7.43000965E-001   7.14736426E-001   7.34390203E-001
   4.50000000E+001   7.76968702E-001   7.31305631E-001   7.68110951E-001
   5.00000000E+001   8.04550032E-001   7.41813222E-001   7.96256890E-001
   5.50000000E+001   8.27322639E-001   7.48220448E-001   8.20052497E-001
   6.00000000E+001   8.46336887E-001   7.51984121E-001   8.40246247E-001
   6.50000000E+001   8.62600095E-001   7.54127531E-001   8.57652920E-001
   7.00000000E+001   8.76708933E-001   7.55322163E-001   8.72768673E-001
   7.50000000E+001   8.88983206E-001   7.55980373E-001   8.85878372E-001
   8.00000000E+001   8.99846562E-001   7.56342086E-001   8.97410399E-001
   8.50000000E+001   9.09386379E-001   7.56541701E-001   9.07474445E-001
   9.00000000E+001   9.17886145E-001   7.56652830E-001   9.16380866E-001
   9.50000000E+001   9.25428879E-001   7.56715371E-001   9.24237657E-001
   1.00000000E+002   9.32112186E-001   7.56750983E-001   9.31163638E-001
   1.05000000E+002   9.38175048E-001   7.56771506E-001   9.37414533E-001
   1.10000000E+002   9.43591083E-001   7.56783452E-001   9.42977060E-001
   1.15000000E+002   9.48460987E-001   7.56790458E-001   9.47961719E-001
   1.20000000E+002   9.52838053E-001   7.56794581E-001   9.52429312E-001
   1.25000000E+002   9.56768176E-001   7.56797005E-001   9.56431308E-001
   1.30000000E+002   9.60319756E-001   7.56798418E-001   9.60040343E-001
   1.35000000E+002   9.63568080E-001   7.56799224E-001   9.63334907E-001
   1.40000000E+002   9.66495814E-001   7.56799667E-001   9.66300093E-001
   1.45000000E+002   9.69149851E-001   7.56799890E-001   9.68984662E-001
   1.50000000E+002   9.71572985E-001   7.56799984E-001   9.71432833E-001
   1.55000000E+002   9.73770257E-001   7.56800001E-001   9.73650757E-001
   1.60000000E+002   9.75799521E-001   7.56799975E-001   9.75697154E-001
   1.65000000E+002   9.77647997E-001   7.56799925E-001   9.77559914E-001
   1.70000000E+002   9.79330795E-001   7.56799864E-001   9.79254684E-001
   1.75000000E+002   9.80844098E-001   7.56799800E-001   9.80778070E-001
   1.80000000E+002   9.82259735E-001   7.56799736E-001   9.82202234E-001
   1.85000000E+002   9.83561777E-001   7.56799675E-001   9.83511521E-001
   1.90000000E+002   9.84737433E-001   7.56799618E-001   9.84693360E-001
   1.95000000E+002   9.85826772E-001   7.56799566E-001   9.85787993E-001
   2.00000000E+002   9.86819416E-001   7.56799518E-001   9.86785191E-001
   2.05000000E+002   9.87742527E-001   7.56799476E-001   9.87712229E-001
   2.10000000E+002   9.88596648E-001   7.56799437E-001   9.88569752E-001
   2.15000000E+002   9.89384336E-001   7.56799403E-001   9.89360394E-001
   2.20000000E+002   9.90106681E-001   7.56799372E-001   9.90085314E-001
   2.25000000E+002   9.90769842E-001   7.56799345E-001   9.90750725E-001
   2.30000000E+002   9.91394247E-001   7.56799320E-001   9.91377103E-001
   2.35000000E+002   9.91976164E-001   7.56799298E-001   9.91960753E-001
   2.40000000E+002   9.92489088E-001   7.56799279E-001   9.92475205E-001
   2.45000000E+002   9.92983540E-001   7.56799261E-001   9.92971008E-001
