# ./jetvheto -in n3lo-fixed-order/H125-LHC13-R04-mb-0-mt-1725-xmur050-xmuf050-log.fxd -xQ 1.0 -out benchmarks-n3lo-smallR/H125-LHC13-R04-mb-0-mt-1725-xmur050-xmuf050-xQ100-NNLO+NNLLa.R0-1.5.res -scheme a -order 2 -ptmax 500.01 -small-r -fixed_order 2 -loop-mass t -R0 1.5
# process = H    
# collider = pp   
# rts =  13000.000
# M   =    125.000
# muR =     62.500
# muF =     62.500
# Q   =    125.000
# p   =      5.000
# include_c1_squared =   F
# loop_mass  = t   
# alphas(MZ) =    0.11800
# alphas(M) =    0.11264
# alphas(muR) =    0.12516
# Rjet =      0.400
# order = NNLL
# pdf name and set = PDF4LHC15_nnlo_mc.LHgrid,    0
# matching scheme = a
# total cross sections [nb] at LO, NLOdiff, NNLOdiff, N3LOdiff =     0.015885    0.020561    0.008998    0.001413
#----------------------------------------------------------------------
# the lines that follow give the jet-veto efficiencies as a function of pt
#         pt            matched eff      resummed eff     fixed-order eff
   2.00000000E+001   5.76045288E-001   6.44541875E-001   4.69057413E-001
   2.50000000E+001   6.58443496E-001   7.19472866E-001   5.55288671E-001
   3.00000000E+001   7.21585986E-001   7.70276422E-001   6.22338019E-001
   3.50000000E+001   7.70839279E-001   8.04253432E-001   6.75875821E-001
   4.00000000E+001   8.09663740E-001   8.26357018E-001   7.19396295E-001
   4.50000000E+001   8.40575200E-001   8.39918764E-001   7.55344248E-001
   5.00000000E+001   8.65670723E-001   8.47257316E-001   7.85683467E-001
   5.50000000E+001   8.85573081E-001   8.50037757E-001   8.11020538E-001
   6.00000000E+001   9.01841870E-001   8.49471478E-001   8.32757246E-001
   6.50000000E+001   9.15149459E-001   8.46466529E-001   8.51501964E-001
   7.00000000E+001   9.26041957E-001   8.41720145E-001   8.67734675E-001
   7.50000000E+001   9.34866035E-001   8.35769827E-001   8.81763053E-001
   8.00000000E+001   9.42186043E-001   8.29040161E-001   8.94087077E-001
   8.50000000E+001   9.48275776E-001   8.21872752E-001   9.04946611E-001
   9.00000000E+001   9.53341055E-001   8.14542862E-001   9.14517318E-001
   9.50000000E+001   9.57504022E-001   8.07269533E-001   9.22903074E-001
   1.00000000E+002   9.61135117E-001   8.00225055E-001   9.30440166E-001
   1.05000000E+002   9.64139677E-001   7.93538520E-001   9.37035250E-001
   1.10000000E+002   9.66779659E-001   7.87300343E-001   9.42936658E-001
   1.15000000E+002   9.69138384E-001   7.81567304E-001   9.48232561E-001
   1.20000000E+002   9.71280574E-001   7.76365837E-001   9.52998144E-001
   1.25000000E+002   9.73283476E-001   7.71698511E-001   9.57326460E-001
   1.30000000E+002   9.75054339E-001   7.67549599E-001   9.61148649E-001
   1.35000000E+002   9.76710902E-001   7.63890159E-001   9.64601780E-001
   1.40000000E+002   9.78293331E-001   7.60682776E-001   9.67750932E-001
   1.45000000E+002   9.79793206E-001   7.57885533E-001   9.70612637E-001
   1.50000000E+002   9.81233272E-001   7.55455112E-001   9.73232562E-001
   1.55000000E+002   9.82566526E-001   7.53349047E-001   9.75586996E-001
   1.60000000E+002   9.83824248E-001   7.51527224E-001   9.77727247E-001
   1.65000000E+002   9.84995292E-001   7.49952721E-001   9.79660891E-001
   1.70000000E+002   9.86115393E-001   7.48592335E-001   9.81439603E-001
   1.75000000E+002   9.87160205E-001   7.47416645E-001   9.83053670E-001
   1.80000000E+002   9.88121290E-001   7.46399823E-001   9.84507522E-001
   1.85000000E+002   9.89041313E-001   7.45519430E-001   9.85854277E-001
   1.90000000E+002   9.89902267E-001   7.44756097E-001   9.87085413E-001
   1.95000000E+002   9.90703408E-001   7.44093186E-001   9.88208314E-001
   2.00000000E+002   9.91450936E-001   7.43516453E-001   9.89235973E-001
   2.05000000E+002   9.92148394E-001   7.43013728E-001   9.90177759E-001
   2.10000000E+002   9.92778261E-001   7.42574631E-001   9.91021276E-001
   2.15000000E+002   9.93389590E-001   7.42190313E-001   9.91819641E-001
   2.20000000E+002   9.93954837E-001   7.41853228E-001   9.92549062E-001
   2.25000000E+002   9.94458040E-001   7.41556940E-001   9.93196753E-001
   2.30000000E+002   9.94967161E-001   7.41295954E-001   9.93833097E-001
   2.35000000E+002   9.95401956E-001   7.41065577E-001   9.94380362E-001
   2.40000000E+002   9.95819970E-001   7.40861789E-001   9.94897900E-001
   2.45000000E+002   9.96205005E-001   7.40681146E-001   9.95371206E-001
