# ./jetvheto -in n3lo-fixed-order/H125-LHC13-R04-mb-475-mt-1725-xmur200-xmuf100-log.fxd -xQ 0.5 -out benchmarks-n3lo-smallR/H125-LHC13-R04-mb-475-mt-1725-xmur200-xmuf100-xQ050-N3LO+NNLLb.R0-1.0.res -scheme b -order 2 -ptmax 500.01 -fixed_order 3 -small-r -loop-mass t+b -R0 1.0
# process = H    
# collider = pp   
# rts =  13000.000
# M   =    125.000
# muR =    250.000
# muF =    125.000
# Q   =     62.500
# p   =      5.000
# include_c1_squared =   F
# loop_mass  = t+b 
# alphas(MZ) =    0.11800
# alphas(M) =    0.11264
# alphas(muR) =    0.10244
# Rjet =      0.400
# order = NNLL
# pdf name and set = PDF4LHC15_nnlo_mc.LHgrid,    0
# matching scheme = b
# total cross sections [nb] at LO, NLOdiff, NNLOdiff, N3LOdiff =     0.010243    0.014468    0.010526    0.005600
#----------------------------------------------------------------------
# the lines that follow give the jet-veto efficiencies as a function of pt
#         pt            matched eff      resummed eff     fixed-order eff
   2.00000000E+001   4.19510062E-001   5.15359181E-001   3.89818525E-001
   2.50000000E+001   5.05456571E-001   5.98908537E-001   4.86093830E-001
   3.00000000E+001   5.78047559E-001   6.58668862E-001   5.64941031E-001
   3.50000000E+001   6.36434519E-001   7.00903486E-001   6.26766390E-001
   4.00000000E+001   6.84284996E-001   7.30228882E-001   6.76837357E-001
   4.50000000E+001   7.23766714E-001   7.50111225E-001   7.17902185E-001
   5.00000000E+001   7.57279264E-001   7.63216312E-001   7.52652485E-001
   5.50000000E+001   7.85887804E-001   7.71609467E-001   7.82254482E-001
   6.00000000E+001   8.10241782E-001   7.76858097E-001   8.07403331E-001
   6.50000000E+001   8.31826757E-001   7.80093381E-001   8.29625457E-001
   7.00000000E+001   8.50251218E-001   7.82082029E-001   8.48548309E-001
   7.50000000E+001   8.65795353E-001   7.83314785E-001   8.64477541E-001
   8.00000000E+001   8.79552137E-001   7.84092388E-001   8.78530213E-001
   8.50000000E+001   8.91872071E-001   7.84594285E-001   8.91076567E-001
   9.00000000E+001   9.02594343E-001   7.84926676E-001   9.01971116E-001
   9.50000000E+001   9.12300129E-001   7.85152633E-001   9.11808698E-001
   1.00000000E+002   9.20586759E-001   7.85310127E-001   9.20196285E-001
   1.05000000E+002   9.28052447E-001   7.85422466E-001   9.27739849E-001
   1.10000000E+002   9.34721087E-001   7.85504286E-001   9.34468996E-001
   1.15000000E+002   9.40738858E-001   7.85565001E-001   9.40534037E-001
   1.20000000E+002   9.45978953E-001   7.85610809E-001   9.45811365E-001
   1.25000000E+002   9.50644719E-001   7.85645884E-001   9.50506638E-001
   1.30000000E+002   9.55136861E-001   7.85673095E-001   9.55022375E-001
   1.35000000E+002   9.59135897E-001   7.85694457E-001   9.59040379E-001
   1.40000000E+002   9.62566585E-001   7.85711405E-001   9.62486427E-001
   1.45000000E+002   9.65817478E-001   7.85724980E-001   9.65749830E-001
   1.50000000E+002   9.68623499E-001   7.85735950E-001   9.68566114E-001
   1.55000000E+002   9.71497406E-001   7.85744884E-001   9.71448489E-001
   1.60000000E+002   9.73643319E-001   7.85752215E-001   9.73601413E-001
   1.65000000E+002   9.75827930E-001   7.85758271E-001   9.75791876E-001
   1.70000000E+002   9.77768151E-001   7.85763304E-001   9.77737000E-001
   1.75000000E+002   9.79611457E-001   7.85767513E-001   9.79584436E-001
   1.80000000E+002   9.81296925E-001   7.85771050E-001   9.81273397E-001
   1.85000000E+002   9.82826757E-001   7.85774040E-001   9.82806195E-001
   1.90000000E+002   9.84010110E-001   7.85776577E-001   9.83992078E-001
   1.95000000E+002   9.85366118E-001   7.85778741E-001   9.85350253E-001
   2.00000000E+002   9.86542626E-001   7.85780595E-001   9.86528625E-001
   2.05000000E+002   9.87579681E-001   7.85782188E-001   9.87567287E-001
   2.10000000E+002   9.88520513E-001   7.85783564E-001   9.88509511E-001
   2.15000000E+002   9.89484447E-001   7.85784755E-001   9.89474655E-001
   2.20000000E+002   9.90253423E-001   7.85785791E-001   9.90244684E-001
   2.25000000E+002   9.91022565E-001   7.85786694E-001   9.91014747E-001
   2.30000000E+002   9.91734990E-001   7.85787484E-001   9.91727980E-001
   2.35000000E+002   9.92395094E-001   7.85788177E-001   9.92388792E-001
   2.40000000E+002   9.92894795E-001   7.85788786E-001   9.92889118E-001
   2.45000000E+002   9.93485313E-001   7.85789324E-001   9.93480189E-001
