# ./jetvheto -in n3lo-fixed-order/H125-LHC13-R04-mb-475-mt-1725-xmur100-xmuf100-log.fxd -xQ 0.25 -out benchmarks-n3lo-smallR/H125-LHC13-R04-mb-475-mt-1725-xmur100-xmuf100-xQ025-N3LO+NNLLa.R0-0.5.res -scheme a -order 2 -ptmax 500.01 -fixed_order 3 -small-r -loop-mass t+b -R0 0.5
# process = H    
# collider = pp   
# rts =  13000.000
# M   =    125.000
# muR =    125.000
# muF =    125.000
# Q   =     31.250
# p   =      5.000
# include_c1_squared =   F
# loop_mass  = t+b 
# alphas(MZ) =    0.11800
# alphas(M) =    0.11264
# alphas(muR) =    0.11264
# Rjet =      0.400
# order = NNLL
# pdf name and set = PDF4LHC15_nnlo_mc.LHgrid,    0
# matching scheme = a
# total cross sections [nb] at LO, NLOdiff, NNLOdiff, N3LOdiff =     0.012292    0.016994    0.010146    0.003834
#----------------------------------------------------------------------
# the lines that follow give the jet-veto efficiencies as a function of pt
#         pt            matched eff      resummed eff     fixed-order eff
   2.00000000E+001   4.47330808E-001   5.20406332E-001   4.51319368E-001
   2.50000000E+001   5.33805233E-001   5.90723012E-001   5.36825698E-001
   3.00000000E+001   6.06601598E-001   6.32073639E-001   6.08858675E-001
   3.50000000E+001   6.63509323E-001   6.54572012E-001   6.64947540E-001
   4.00000000E+001   7.09453669E-001   6.66388341E-001   7.10355778E-001
   4.50000000E+001   7.46886329E-001   6.72632447E-001   7.47456588E-001
   5.00000000E+001   7.78604616E-001   6.76033473E-001   7.78978104E-001
   5.50000000E+001   8.05678323E-001   6.77960407E-001   8.05930820E-001
   6.00000000E+001   8.28543289E-001   6.79097126E-001   8.28717070E-001
   6.50000000E+001   8.48940569E-001   6.79793564E-001   8.49064316E-001
   7.00000000E+001   8.66178760E-001   6.80235127E-001   8.66268025E-001
   7.50000000E+001   8.80465965E-001   6.80523783E-001   8.80530885E-001
   8.00000000E+001   8.93068277E-001   6.80717679E-001   8.93116387E-001
   8.50000000E+001   9.04425795E-001   6.80851107E-001   9.04462211E-001
   9.00000000E+001   9.14165682E-001   6.80944924E-001   9.14193494E-001
   9.50000000E+001   9.23060862E-001   6.81012174E-001   9.23082480E-001
   1.00000000E+002   9.30494336E-001   6.81061224E-001   9.30511231E-001
   1.05000000E+002   9.37187481E-001   6.81097563E-001   9.37200842E-001
   1.10000000E+002   9.43187782E-001   6.81124872E-001   9.43198469E-001
   1.15000000E+002   9.48579007E-001   6.81145661E-001   9.48587632E-001
   1.20000000E+002   9.53230879E-001   6.81161675E-001   9.53237889E-001
   1.25000000E+002   9.57309540E-001   6.81174146E-001   9.57315271E-001
   1.30000000E+002   9.61362073E-001   6.81183954E-001   9.61366818E-001
   1.35000000E+002   9.64932677E-001   6.81191741E-001   9.64936627E-001
   1.40000000E+002   9.67925890E-001   6.81197975E-001   9.67929190E-001
   1.45000000E+002   9.70796659E-001   6.81203007E-001   9.70799436E-001
   1.50000000E+002   9.73229571E-001   6.81207097E-001   9.73231918E-001
   1.55000000E+002   9.75843035E-001   6.81210446E-001   9.75845039E-001
   1.60000000E+002   9.77613935E-001   6.81213205E-001   9.77615642E-001
   1.65000000E+002   9.79522220E-001   6.81215492E-001   9.79523686E-001
   1.70000000E+002   9.81189530E-001   6.81217399E-001   9.81190793E-001
   1.75000000E+002   9.82812369E-001   6.81218997E-001   9.82813463E-001
   1.80000000E+002   9.84291760E-001   6.81220344E-001   9.84292712E-001
   1.85000000E+002   9.85628760E-001   6.81221483E-001   9.85629591E-001
   1.90000000E+002   9.86565309E-001   6.81222452E-001   9.86566035E-001
   1.95000000E+002   9.87768973E-001   6.81223279E-001   9.87769612E-001
   2.00000000E+002   9.88790714E-001   6.81223989E-001   9.88791277E-001
   2.05000000E+002   9.89666908E-001   6.81224599E-001   9.89667405E-001
   2.10000000E+002   9.90458422E-001   6.81225127E-001   9.90458863E-001
   2.15000000E+002   9.91322913E-001   6.81225584E-001   9.91323305E-001
   2.20000000E+002   9.91955242E-001   6.81225981E-001   9.91955592E-001
   2.25000000E+002   9.92619271E-001   6.81226328E-001   9.92619584E-001
   2.30000000E+002   9.93235652E-001   6.81226632E-001   9.93235932E-001
   2.35000000E+002   9.93804551E-001   6.81226898E-001   9.93804803E-001
   2.40000000E+002   9.94192513E-001   6.81227133E-001   9.94192740E-001
   2.45000000E+002   9.94713406E-001   6.81227340E-001   9.94713610E-001
