# ./jetvheto -in n3lo-fixed-order/H125-LHC13-R04-mb-475-mt-1725-xmur050-xmuf025-log.fxd -xQ 0.5 -out benchmarks-n3lo-smallR/H125-LHC13-R04-mb-475-mt-1725-xmur050-xmuf025-xQ050-NNLO+NNLLa.R0-1.0.res -scheme a -order 2 -ptmax 500.01 -fixed_order 2 -small-r -loop-mass t+b -R0 1.0
# process = H    
# collider = pp   
# rts =  13000.000
# M   =    125.000
# muR =     62.500
# muF =     31.250
# Q   =     62.500
# p   =      5.000
# include_c1_squared =   F
# loop_mass  = t+b 
# alphas(MZ) =    0.11800
# alphas(M) =    0.11264
# alphas(muR) =    0.12516
# Rjet =      0.400
# order = NNLL
# pdf name and set = PDF4LHC15_nnlo_mc.LHgrid,    0
# matching scheme = a
# total cross sections [nb] at LO, NLOdiff, NNLOdiff, N3LOdiff =     0.012926    0.020318    0.009723    0.001827
#----------------------------------------------------------------------
# the lines that follow give the jet-veto efficiencies as a function of pt
#         pt            matched eff      resummed eff     fixed-order eff
   2.00000000E+001   4.39902563E-001   4.61897677E-001   4.49376256E-001
   2.50000000E+001   5.28822514E-001   5.38887249E-001   5.34025121E-001
   3.00000000E+001   5.99739795E-001   5.94029209E-001   6.00744622E-001
   3.50000000E+001   6.57109979E-001   6.33025989E-001   6.55033276E-001
   4.00000000E+001   7.03689021E-001   6.60156990E-001   6.99725943E-001
   4.50000000E+001   7.41902998E-001   6.78597521E-001   7.37098941E-001
   5.00000000E+001   7.73572283E-001   6.90785260E-001   7.68680039E-001
   5.50000000E+001   8.00008558E-001   6.98620139E-001   7.95502115E-001
   6.00000000E+001   8.22469535E-001   7.03543674E-001   8.18572628E-001
   6.50000000E+001   8.41777046E-001   7.06596067E-001   8.38542465E-001
   7.00000000E+001   8.58659993E-001   7.08484404E-001   8.56043590E-001
   7.50000000E+001   8.73207318E-001   7.09663011E-001   8.71122230E-001
   8.00000000E+001   8.86173863E-001   7.10411753E-001   8.84524140E-001
   8.50000000E+001   8.97680003E-001   7.10898434E-001   8.96376665E-001
   9.00000000E+001   9.07856465E-001   7.11222881E-001   9.06824852E-001
   9.50000000E+001   9.16813230E-001   7.11444758E-001   9.15993237E-001
   1.00000000E+002   9.24827926E-001   7.11600217E-001   9.24172569E-001
   1.05000000E+002   9.32061916E-001   7.11711603E-001   9.31534780E-001
   1.10000000E+002   9.38503692E-001   7.11793035E-001   9.38076899E-001
   1.15000000E+002   9.44335270E-001   7.11853653E-001   9.43987376E-001
   1.20000000E+002   9.49607377E-001   7.11899506E-001   9.49321865E-001
   1.25000000E+002   9.54312944E-001   7.11934690E-001   9.54077090E-001
   1.30000000E+002   9.58584025E-001   7.11962034E-001   9.58388001E-001
   1.35000000E+002   9.62431767E-001   7.11983531E-001   9.62267886E-001
   1.40000000E+002   9.65902137E-001   7.12000607E-001   9.65764337E-001
   1.45000000E+002   9.69112527E-001   7.12014298E-001   9.68996025E-001
   1.50000000E+002   9.71995878E-001   7.12025370E-001   9.71896874E-001
   1.55000000E+002   9.74619039E-001   7.12034394E-001   9.74534494E-001
   1.60000000E+002   9.77022666E-001   7.12041802E-001   9.76950138E-001
   1.65000000E+002   9.79198754E-001   7.12047925E-001   9.79136265E-001
   1.70000000E+002   9.81171145E-001   7.12053016E-001   9.81117078E-001
   1.75000000E+002   9.82967249E-001   7.12057274E-001   9.82920289E-001
   1.80000000E+002   9.84598244E-001   7.12060854E-001   9.84557304E-001
   1.85000000E+002   9.86078885E-001   7.12063880E-001   9.86043063E-001
   1.90000000E+002   9.87454479E-001   7.12066450E-001   9.87423030E-001
   1.95000000E+002   9.88714807E-001   7.12068641E-001   9.88687110E-001
   2.00000000E+002   9.89859529E-001   7.12070518E-001   9.89835060E-001
   2.05000000E+002   9.90918123E-001   7.12072133E-001   9.90896442E-001
   2.10000000E+002   9.91887643E-001   7.12073526E-001   9.91868380E-001
   2.15000000E+002   9.92742999E-001   7.12074733E-001   9.92725838E-001
   2.20000000E+002   9.93552264E-001   7.12075782E-001   9.93536937E-001
   2.25000000E+002   9.94287776E-001   7.12076698E-001   9.94274053E-001
   2.30000000E+002   9.94949829E-001   7.12077498E-001   9.94937514E-001
   2.35000000E+002   9.95568294E-001   7.12078200E-001   9.95557216E-001
   2.40000000E+002   9.96117422E-001   7.12078818E-001   9.96107437E-001
   2.45000000E+002   9.96619295E-001   7.12079363E-001   9.96610275E-001
