# ./jetvheto -in n3lo-fixed-order/H125-LHC13-R04-heft-xmur025-xmuf025-log.fxd -xQ 0.50 -out benchmarks-n3lo-smallR/H125-LHC13-R04-heft-xmur025-xmuf025-xQ050-NNLO+NNLLa.R0-1.0.res -scheme a -order 2 -ptmax 500.01 -fixed_order 2 -small-r -R0 1.0
# process = H    
# collider = pp   
# rts =  13000.000
# M   =    125.000
# muR =     31.250
# muF =     31.250
# Q   =     62.500
# p   =      5.000
# include_c1_squared =   F
# loop_mass  = none
# alphas(MZ) =    0.11800
# alphas(M) =    0.11264
# alphas(muR) =    0.14091
# Rjet =      0.400
# order = NNLL
# pdf name and set = PDF4LHC15_nnlo_mc.LHgrid,    0
# matching scheme = a
# total cross sections [nb] at LO, NLOdiff, NNLOdiff, N3LOdiff =     0.017443    0.024066    0.006043   -0.002471
#----------------------------------------------------------------------
# the lines that follow give the jet-veto efficiencies as a function of pt
#         pt            matched eff      resummed eff     fixed-order eff
   2.00000000E+001   4.72789217E-001   4.94967604E-001   4.22450122E-001
   2.50000000E+001   5.54683379E-001   5.64661766E-001   5.11900436E-001
   3.00000000E+001   6.19301683E-001   6.13093956E-001   5.83153040E-001
   3.50000000E+001   6.71359497E-001   6.46307795E-001   6.41162186E-001
   4.00000000E+001   7.13631415E-001   6.68631028E-001   6.88755715E-001
   4.50000000E+001   7.48668162E-001   6.83183052E-001   7.28512618E-001
   5.00000000E+001   7.77909386E-001   6.92305440E-001   7.61836328E-001
   5.50000000E+001   8.02815245E-001   6.97782592E-001   7.90187676E-001
   6.00000000E+001   8.24369839E-001   7.00932373E-001   8.14558742E-001
   6.50000000E+001   8.43036806E-001   7.02673746E-001   8.35469114E-001
   7.00000000E+001   8.59452111E-001   7.03604534E-001   8.53631908E-001
   7.50000000E+001   8.73745190E-001   7.04087848E-001   8.69264939E-001
   8.00000000E+001   8.86540404E-001   7.04331990E-001   8.83079293E-001
   8.50000000E+001   8.97868225E-001   7.04451132E-001   8.95179059E-001
   9.00000000E+001   9.07915072E-001   7.04506114E-001   9.05811087E-001
   9.50000000E+001   9.16782154E-001   7.04528757E-001   9.15123208E-001
   1.00000000E+002   9.24743945E-001   7.04535510E-001   9.23425441E-001
   1.05000000E+002   9.31870940E-001   7.04534793E-001   9.30814627E-001
   1.10000000E+002   9.38268169E-001   7.04530865E-001   9.37415212E-001
   1.15000000E+002   9.44012905E-001   7.04525842E-001   9.43318963E-001
   1.20000000E+002   9.49136103E-001   7.04520733E-001   9.48567413E-001
   1.25000000E+002   9.53662389E-001   7.04515990E-001   9.53193121E-001
   1.30000000E+002   9.57818128E-001   7.04511779E-001   9.57428358E-001
   1.35000000E+002   9.61574394E-001   7.04508130E-001   9.61248660E-001
   1.40000000E+002   9.64915562E-001   7.04505012E-001   9.64641750E-001
   1.45000000E+002   9.67992289E-001   7.04502365E-001   9.67760842E-001
   1.50000000E+002   9.70724798E-001   7.04500128E-001   9.70528143E-001
   1.55000000E+002   9.73210335E-001   7.04498239E-001   9.73042414E-001
   1.60000000E+002   9.75484901E-001   7.04496643E-001   9.75340850E-001
   1.65000000E+002   9.77565427E-001   7.04495293E-001   9.77441308E-001
   1.70000000E+002   9.79429631E-001   7.04494149E-001   9.79322235E-001
   1.75000000E+002   9.81151851E-001   7.04493176E-001   9.81058560E-001
   1.80000000E+002   9.82707594E-001   7.04492348E-001   9.82626252E-001
   1.85000000E+002   9.84092017E-001   7.04491640E-001   9.84020840E-001
   1.90000000E+002   9.85393582E-001   7.04491034E-001   9.85331088E-001
   1.95000000E+002   9.86587355E-001   7.04490512E-001   9.86532310E-001
   2.00000000E+002   9.87659446E-001   7.04490062E-001   9.87610811E-001
   2.05000000E+002   9.88671207E-001   7.04489673E-001   9.88628109E-001
   2.10000000E+002   9.89608965E-001   7.04489336E-001   9.89570667E-001
   2.15000000E+002   9.90434230E-001   7.04489042E-001   9.90400107E-001
   2.20000000E+002   9.91224848E-001   7.04488786E-001   9.91194365E-001
   2.25000000E+002   9.91948931E-001   7.04488562E-001   9.91921635E-001
   2.30000000E+002   9.92591318E-001   7.04488365E-001   9.92566818E-001
   2.35000000E+002   9.93199997E-001   7.04488193E-001   9.93177956E-001
   2.40000000E+002   9.93750962E-001   7.04488040E-001   9.93731092E-001
   2.45000000E+002   9.94267985E-001   7.04487905E-001   9.94250034E-001
