# ./jetvheto -in n3lo-fixed-order/H125-LHC13-R04-mb-0-mt-1725-xmur050-xmuf050-log.fxd -xQ 0.75 -out benchmarks-n3lo-smallR/H125-LHC13-R04-mb-0-mt-1725-xmur050-xmuf050-xQ075-NNLO+NNLLb.R0-2.0.res -scheme b -order 2 -ptmax 500.01 -small-r -fixed_order 2 -loop-mass t -R0 2.0
# process = H    
# collider = pp   
# rts =  13000.000
# M   =    125.000
# muR =     62.500
# muF =     62.500
# Q   =     93.750
# p   =      5.000
# include_c1_squared =   F
# loop_mass  = t   
# alphas(MZ) =    0.11800
# alphas(M) =    0.11264
# alphas(muR) =    0.12516
# Rjet =      0.400
# order = NNLL
# pdf name and set = PDF4LHC15_nnlo_mc.LHgrid,    0
# matching scheme = b
# total cross sections [nb] at LO, NLOdiff, NNLOdiff, N3LOdiff =     0.015885    0.020561    0.008998    0.001413
#----------------------------------------------------------------------
# the lines that follow give the jet-veto efficiencies as a function of pt
#         pt            matched eff      resummed eff     fixed-order eff
   2.00000000E+001   4.89312321E-001   5.83311940E-001   3.37968833E-001
   2.50000000E+001   5.66431367E-001   6.55710979E-001   4.45490403E-001
   3.00000000E+001   6.27880109E-001   7.05765214E-001   5.29094091E-001
   3.50000000E+001   6.77800753E-001   7.40046359E-001   5.95850260E-001
   4.00000000E+001   7.18747240E-001   7.63017033E-001   6.50115846E-001
   4.50000000E+001   7.52731681E-001   7.77789687E-001   6.94939270E-001
   5.00000000E+001   7.81588006E-001   7.86585245E-001   7.32769177E-001
   5.50000000E+001   8.05591119E-001   7.91040830E-001   7.64361916E-001
   6.00000000E+001   8.26261612E-001   7.92382336E-001   7.91465371E-001
   6.50000000E+001   8.44144145E-001   7.91558376E-001   8.14838120E-001
   7.00000000E+001   8.59689369E-001   7.89313292E-001   8.35078651E-001
   7.50000000E+001   8.73168680E-001   7.86228474E-001   8.52570605E-001
   8.00000000E+001   8.85128233E-001   7.82748724E-001   8.67937405E-001
   8.50000000E+001   8.95791199E-001   7.79198184E-001   8.81478135E-001
   9.00000000E+001   9.05308423E-001   7.75796622E-001   8.93411828E-001
   9.50000000E+001   9.13744837E-001   7.72676077E-001   9.03868009E-001
   1.00000000E+002   9.21468066E-001   7.69902319E-001   9.13265993E-001
   1.05000000E+002   9.28304335E-001   7.67493292E-001   9.21489390E-001
   1.10000000E+002   9.34519965E-001   7.65435994E-001   9.28847842E-001
   1.15000000E+002   9.40183315E-001   7.63699916E-001   9.35451292E-001
   1.20000000E+002   9.45352615E-001   7.62246694E-001   9.41393487E-001
   1.25000000E+002   9.50113963E-001   7.61036317E-001   9.46790455E-001
   1.30000000E+002   9.54355439E-001   7.60030973E-001   9.51556334E-001
   1.35000000E+002   9.58228326E-001   7.59196742E-001   9.55862035E-001
   1.40000000E+002   9.61796868E-001   7.58504213E-001   9.59788706E-001
   1.45000000E+002   9.65067777E-001   7.57928502E-001   9.63356960E-001
   1.50000000E+002   9.68086954E-001   7.57448874E-001   9.66623739E-001
   1.55000000E+002   9.70815592E-001   7.57048223E-001   9.69559478E-001
   1.60000000E+002   9.73310499E-001   7.56712528E-001   9.72228153E-001
   1.65000000E+002   9.75575179E-001   7.56430335E-001   9.74639208E-001
   1.70000000E+002   9.77669379E-001   7.56192305E-001   9.76857081E-001
   1.75000000E+002   9.79577034E-001   7.55990823E-001   9.78869658E-001
   1.80000000E+002   9.81300468E-001   7.55819677E-001   9.80682463E-001
   1.85000000E+002   9.82903408E-001   7.55673789E-001   9.82361728E-001
   1.90000000E+002   9.84373076E-001   7.55548999E-001   9.83896830E-001
   1.95000000E+002   9.85716923E-001   7.55441894E-001   9.85296972E-001
   2.00000000E+002   9.86949725E-001   7.55349662E-001   9.86578358E-001
   2.05000000E+002   9.88081978E-001   7.55269978E-001   9.87752669E-001
   2.10000000E+002   9.89097218E-001   7.55200920E-001   9.88804449E-001
   2.15000000E+002   9.90060892E-001   7.55140888E-001   9.89799927E-001
   2.20000000E+002   9.90942622E-001   7.55088546E-001   9.90709441E-001
   2.25000000E+002   9.91725879E-001   7.55042781E-001   9.91517046E-001
   2.30000000E+002   9.92497975E-001   7.55002654E-001   9.92310501E-001
   2.35000000E+002   9.93161534E-001   7.54967377E-001   9.92992886E-001
   2.40000000E+002   9.93790241E-001   7.54936284E-001   9.93638203E-001
   2.45000000E+002   9.94365708E-001   7.54908809E-001   9.94228366E-001
