# ./jetvheto -in n3lo-fixed-order/H125-LHC13-R04-mb-475-mt-1725-xmur100-xmuf100-log.fxd -xQ 0.75 -out benchmarks-n3lo-smallR/H125-LHC13-R04-mb-475-mt-1725-xmur100-xmuf100-xQ075-NNLO+NNLLa.R0-2.0.res -scheme a -order 2 -ptmax 500.01 -fixed_order 2 -small-r -loop-mass t+b -R0 2.0
# process = H    
# collider = pp   
# rts =  13000.000
# M   =    125.000
# muR =    125.000
# muF =    125.000
# Q   =     93.750
# p   =      5.000
# include_c1_squared =   F
# loop_mass  = t+b 
# alphas(MZ) =    0.11800
# alphas(M) =    0.11264
# alphas(muR) =    0.11264
# Rjet =      0.400
# order = NNLL
# pdf name and set = PDF4LHC15_nnlo_mc.LHgrid,    0
# matching scheme = a
# total cross sections [nb] at LO, NLOdiff, NNLOdiff, N3LOdiff =     0.012292    0.016994    0.010146    0.003834
#----------------------------------------------------------------------
# the lines that follow give the jet-veto efficiencies as a function of pt
#         pt            matched eff      resummed eff     fixed-order eff
   2.00000000E+001   5.10795999E-001   5.48534237E-001   4.93150502E-001
   2.50000000E+001   5.99040386E-001   6.27077913E-001   5.75024850E-001
   3.00000000E+001   6.67908486E-001   6.82330083E-001   6.38301171E-001
   3.50000000E+001   7.22322682E-001   7.20898051E-001   6.88801162E-001
   4.00000000E+001   7.65444900E-001   7.47396467E-001   7.29800784E-001
   4.50000000E+001   7.99941345E-001   7.65081004E-001   7.63713984E-001
   5.00000000E+001   8.27707040E-001   7.76277082E-001   7.92155543E-001
   5.50000000E+001   8.50075396E-001   7.82703834E-001   8.16168137E-001
   6.00000000E+001   8.68378716E-001   7.85664502E-001   8.36797648E-001
   6.50000000E+001   8.83400816E-001   7.86171177E-001   8.54584097E-001
   7.00000000E+001   8.95790805E-001   7.85018063E-001   8.69965602E-001
   7.50000000E+001   9.06138012E-001   7.82825360E-001   8.83354565E-001
   8.00000000E+001   9.14983301E-001   7.80069711E-001   8.95150407E-001
   8.50000000E+001   9.22514343E-001   7.77102790E-001   9.05446499E-001
   9.00000000E+001   9.29189458E-001   7.74169010E-001   9.14630889E-001
   9.50000000E+001   9.35040792E-001   7.71422584E-001   9.22708788E-001
   1.00000000E+002   9.40289392E-001   7.68947440E-001   9.29893229E-001
   1.05000000E+002   9.45070092E-001   7.66776597E-001   9.36331059E-001
   1.10000000E+002   9.49343838E-001   7.64909398E-001   9.42008406E-001
   1.15000000E+002   9.53314022E-001   7.63325355E-001   9.47155949E-001
   1.20000000E+002   9.56884430E-001   7.61994017E-001   9.51709725E-001
   1.25000000E+002   9.60234774E-001   7.60881749E-001   9.55877636E-001
   1.30000000E+002   9.63298615E-001   7.59955671E-001   9.59620741E-001
   1.35000000E+002   9.66135564E-001   7.59185735E-001   9.63021762E-001
   1.40000000E+002   9.68713330E-001   7.58545600E-001   9.66068699E-001
   1.45000000E+002   9.71141013E-001   7.58012789E-001   9.68886869E-001
   1.50000000E+002   9.73327131E-001   7.57568459E-001   9.71399196E-001
   1.55000000E+002   9.75376901E-001   7.57196992E-001   9.73721950E-001
   1.60000000E+002   9.77248299E-001   7.56885541E-001   9.75822606E-001
   1.65000000E+002   9.78973755E-001   7.56623583E-001   9.77741229E-001
   1.70000000E+002   9.80570276E-001   7.56402520E-001   9.79501024E-001
   1.75000000E+002   9.82020599E-001   7.56215329E-001   9.81089888E-001
   1.80000000E+002   9.83365096E-001   7.56056270E-001   9.82552292E-001
   1.85000000E+002   9.84599631E-001   7.55920648E-001   9.83887543E-001
   1.90000000E+002   9.85742271E-001   7.55804614E-001   9.85116487E-001
   1.95000000E+002   9.86814829E-001   7.55705004E-001   9.86263234E-001
   2.00000000E+002   9.87788516E-001   7.55619210E-001   9.87300933E-001
   2.05000000E+002   9.88697257E-001   7.55545080E-001   9.88265058E-001
   2.10000000E+002   9.89528710E-001   7.55480826E-001   9.89144590E-001
   2.15000000E+002   9.90279344E-001   7.55424964E-001   9.89937088E-001
   2.20000000E+002   9.90990633E-001   7.55376254E-001   9.90684915E-001
   2.25000000E+002   9.91642490E-001   7.55333660E-001   9.91368764E-001
   2.30000000E+002   9.92244944E-001   7.55296311E-001   9.91999301E-001
   2.35000000E+002   9.92810078E-001   7.55263475E-001   9.92589146E-001
   2.40000000E+002   9.93317905E-001   7.55234531E-001   9.93118784E-001
   2.45000000E+002   9.93800882E-001   7.55208955E-001   9.93621047E-001
