# ./jetvheto -in n3lo-fixed-order/H125-LHC13-R04-mb-0-mt-1725-xmur100-xmuf050-log.fxd -xQ 0.25 -out benchmarks-n3lo-smallR/H125-LHC13-R04-mb-0-mt-1725-xmur100-xmuf050-xQ025-NNLO+NNLLb.R0-0.5.res -scheme b -order 2 -ptmax 500.01 -small-r -fixed_order 2 -loop-mass t -R0 0.5
# process = H    
# collider = pp   
# rts =  13000.000
# M   =    125.000
# muR =    125.000
# muF =     62.500
# Q   =     31.250
# p   =      5.000
# include_c1_squared =   F
# loop_mass  = t   
# alphas(MZ) =    0.11800
# alphas(M) =    0.11264
# alphas(muR) =    0.11264
# Rjet =      0.400
# order = NNLL
# pdf name and set = PDF4LHC15_nnlo_mc.LHgrid,    0
# matching scheme = b
# total cross sections [nb] at LO, NLOdiff, NNLOdiff, N3LOdiff =     0.012997    0.017347    0.010424    0.004163
#----------------------------------------------------------------------
# the lines that follow give the jet-veto efficiencies as a function of pt
#         pt            matched eff      resummed eff     fixed-order eff
   2.00000000E+001   3.88821814E-001   5.31825530E-001   3.35464478E-001
   2.50000000E+001   4.71804390E-001   6.06812270E-001   4.44581634E-001
   3.00000000E+001   5.41896427E-001   6.51242754E-001   5.28420724E-001
   3.50000000E+001   6.01605841E-001   6.75548795E-001   5.94978134E-001
   4.00000000E+001   6.52203443E-001   6.88357971E-001   6.48877858E-001
   4.50000000E+001   6.95028280E-001   6.95139876E-001   6.93298464E-001
   5.00000000E+001   7.31705398E-001   6.98837946E-001   7.30768118E-001
   5.50000000E+001   7.62539367E-001   7.00934521E-001   7.62009523E-001
   6.00000000E+001   7.89162032E-001   7.02171778E-001   7.88850765E-001
   6.50000000E+001   8.12204688E-001   7.02929986E-001   8.12015374E-001
   7.00000000E+001   8.32190459E-001   7.03410782E-001   8.32071711E-001
   7.50000000E+001   8.49530614E-001   7.03725114E-001   8.49453901E-001
   8.00000000E+001   8.64787869E-001   7.03936270E-001   8.64737072E-001
   8.50000000E+001   8.78262695E-001   7.04081581E-001   8.78228289E-001
   9.00000000E+001   8.90155678E-001   7.04183757E-001   8.90131888E-001
   9.50000000E+001   9.00617396E-001   7.04257000E-001   9.00600609E-001
   1.00000000E+002   9.10036043E-001   7.04310422E-001   9.10024002E-001
   1.05000000E+002   9.18303628E-001   7.04350001E-001   9.18294838E-001
   1.10000000E+002   9.25707609E-001   7.04379744E-001   9.25701100E-001
   1.15000000E+002   9.32374501E-001   7.04402387E-001   9.32369614E-001
   1.20000000E+002   9.38387078E-001   7.04419829E-001   9.38383362E-001
   1.25000000E+002   9.43860190E-001   7.04433411E-001   9.43857332E-001
   1.30000000E+002   9.48712767E-001   7.04444095E-001   9.48710541E-001
   1.35000000E+002   9.53094697E-001   7.04452575E-001   9.53092945E-001
   1.40000000E+002   9.57106110E-001   7.04459366E-001   9.57104719E-001
   1.45000000E+002   9.60769680E-001   7.04464846E-001   9.60768564E-001
   1.50000000E+002   9.64124411E-001   7.04469301E-001   9.64123509E-001
   1.55000000E+002   9.67148374E-001   7.04472948E-001   9.67147638E-001
   1.60000000E+002   9.69904046E-001   7.04475954E-001   9.69903441E-001
   1.65000000E+002   9.72403943E-001   7.04478445E-001   9.72403442E-001
   1.70000000E+002   9.74703874E-001   7.04480522E-001   9.74703456E-001
   1.75000000E+002   9.76789796E-001   7.04482262E-001   9.76789445E-001
   1.80000000E+002   9.78683048E-001   7.04483729E-001   9.78682751E-001
   1.85000000E+002   9.80438979E-001   7.04484970E-001   9.80438727E-001
   1.90000000E+002   9.82044884E-001   7.04486025E-001   9.82044669E-001
   1.95000000E+002   9.83517840E-001   7.04486927E-001   9.83517655E-001
   2.00000000E+002   9.84869505E-001   7.04487699E-001   9.84869345E-001
   2.05000000E+002   9.86107332E-001   7.04488364E-001   9.86107193E-001
   2.10000000E+002   9.87224827E-001   7.04488938E-001   9.87224706E-001
   2.15000000E+002   9.88279331E-001   7.04489436E-001   9.88279226E-001
   2.20000000E+002   9.89244851E-001   7.04489869E-001   9.89244758E-001
   2.25000000E+002   9.90113817E-001   7.04490247E-001   9.90113735E-001
   2.30000000E+002   9.90954140E-001   7.04490578E-001   9.90954068E-001
   2.35000000E+002   9.91687692E-001   7.04490868E-001   9.91687628E-001
   2.40000000E+002   9.92381944E-001   7.04491124E-001   9.92381887E-001
   2.45000000E+002   9.93017406E-001   7.04491349E-001   9.93017355E-001
