# ./jetvheto -in n3lo-fixed-order/H125-LHC13-R04-heft-xmur100-xmuf100-log.fxd -xQ 0.333 -out benchmarks-n3lo-smallR/H125-LHC13-R04-heft-xmur100-xmuf100-xQ033-N3LO+NNLLb.R0-1.0.res -scheme b -order 2 -ptmax 500.01 -fixed_order 3 -small-r -R0 1.0
# process = H    
# collider = pp   
# rts =  13000.000
# M   =    125.000
# muR =    125.000
# muF =    125.000
# Q   =     41.625
# p   =      5.000
# include_c1_squared =   F
# loop_mass  = none
# alphas(MZ) =    0.11800
# alphas(M) =    0.11264
# alphas(muR) =    0.11264
# Rjet =      0.400
# order = NNLL
# pdf name and set = PDF4LHC15_nnlo_mc.LHgrid,    0
# matching scheme = b
# total cross sections [nb] at LO, NLOdiff, NNLOdiff, N3LOdiff =     0.012945    0.016716    0.010146    0.003834
#----------------------------------------------------------------------
# the lines that follow give the jet-veto efficiencies as a function of pt
#         pt            matched eff      resummed eff     fixed-order eff
   2.00000000E+001   4.32153650E-001   5.20940696E-001   4.08842854E-001
   2.50000000E+001   5.16330135E-001   6.00057631E-001   5.02042917E-001
   3.00000000E+001   5.88522837E-001   6.53449400E-001   5.80189507E-001
   3.50000000E+001   6.45616246E-001   6.87973988E-001   6.40535859E-001
   4.00000000E+001   6.92519491E-001   7.09367041E-001   6.89380469E-001
   4.50000000E+001   7.31046468E-001   7.22235374E-001   7.29072921E-001
   5.00000000E+001   7.63971007E-001   7.29899103E-001   7.62718280E-001
   5.50000000E+001   7.92273185E-001   7.34498773E-001   7.91464926E-001
   6.00000000E+001   8.16215871E-001   7.37312587E-001   8.15679320E-001
   6.50000000E+001   8.37668894E-001   7.39076617E-001   8.37307615E-001
   7.00000000E+001   8.55778148E-001   7.40211696E-001   8.55527758E-001
   7.50000000E+001   8.70832303E-001   7.40960926E-001   8.70653294E-001
   8.00000000E+001   8.84058978E-001   7.41467470E-001   8.83928611E-001
   8.50000000E+001   8.96022832E-001   7.41817595E-001   8.95926690E-001
   9.00000000E+001   9.06255514E-001   7.42064541E-001   9.06183068E-001
   9.50000000E+001   9.15621720E-001   7.42241950E-001   9.15566581E-001
   1.00000000E+002   9.23435744E-001   7.42371551E-001   9.23392937E-001
   1.05000000E+002   9.30450354E-001   7.42467683E-001   9.30416744E-001
   1.10000000E+002   9.36788493E-001   7.42539988E-001   9.36761850E-001
   1.15000000E+002   9.42464126E-001   7.42595067E-001   9.42442779E-001
   1.20000000E+002   9.47408454E-001   7.42637517E-001   9.47391165E-001
   1.25000000E+002   9.51681481E-001   7.42670587E-001   9.51667329E-001
   1.30000000E+002   9.55954547E-001   7.42696606E-001   9.55942935E-001
   1.35000000E+002   9.59725466E-001   7.42717266E-001   9.59715852E-001
   1.40000000E+002   9.62872586E-001   7.42733811E-001   9.62864552E-001
   1.45000000E+002   9.65900078E-001   7.42747165E-001   9.65893331E-001
   1.50000000E+002   9.68459862E-001   7.42758024E-001   9.68454154E-001
   1.55000000E+002   9.71206825E-001   7.42766914E-001   9.71201993E-001
   1.60000000E+002   9.73083609E-001   7.42774240E-001   9.73079465E-001
   1.65000000E+002   9.75099062E-001   7.42780313E-001   9.75095505E-001
   1.70000000E+002   9.76876055E-001   7.42785376E-001   9.76872986E-001
   1.75000000E+002   9.78609151E-001   7.42789621E-001   9.78606495E-001
   1.80000000E+002   9.80204304E-001   7.42793196E-001   9.80201996E-001
   1.85000000E+002   9.81640103E-001   7.42796222E-001   9.81638090E-001
   1.90000000E+002   9.82647802E-001   7.42798796E-001   9.82646032E-001
   1.95000000E+002   9.83954153E-001   7.42800993E-001   9.83952600E-001
   2.00000000E+002   9.85073400E-001   7.42802877E-001   9.85072030E-001
   2.05000000E+002   9.86034331E-001   7.42804499E-001   9.86033119E-001
   2.10000000E+002   9.86907107E-001   7.42805899E-001   9.86906031E-001
   2.15000000E+002   9.87869468E-001   7.42807113E-001   9.87868512E-001
   2.20000000E+002   9.88577045E-001   7.42808169E-001   9.88576191E-001
   2.25000000E+002   9.89323996E-001   7.42809091E-001   9.89323232E-001
   2.30000000E+002   9.90025299E-001   7.42809897E-001   9.90024614E-001
   2.35000000E+002   9.90683984E-001   7.42810605E-001   9.90683369E-001
   2.40000000E+002   9.91145967E-001   7.42811228E-001   9.91145412E-001
   2.45000000E+002   9.91748608E-001   7.42811777E-001   9.91748108E-001
