# ./jetvheto -in n3lo-fixed-order/H125-LHC13-R04-mb-0-mt-1725-xmur050-xmuf100-log.fxd -xQ 0.5 -out benchmarks-n3lo-smallR/H125-LHC13-R04-mb-0-mt-1725-xmur050-xmuf100-xQ050-NNLO+NNLLb.R0-0.5.res -scheme b -order 2 -ptmax 500.01 -small-r -fixed_order 2 -loop-mass t -R0 0.5
# process = H    
# collider = pp   
# rts =  13000.000
# M   =    125.000
# muR =     62.500
# muF =    125.000
# Q   =     62.500
# p   =      5.000
# include_c1_squared =   F
# loop_mass  = t   
# alphas(MZ) =    0.11800
# alphas(M) =    0.11264
# alphas(muR) =    0.12516
# Rjet =      0.400
# order = NNLL
# pdf name and set = PDF4LHC15_nnlo_mc.LHgrid,    0
# matching scheme = b
# total cross sections [nb] at LO, NLOdiff, NNLOdiff, N3LOdiff =     0.016868    0.020591    0.008553    0.000949
#----------------------------------------------------------------------
# the lines that follow give the jet-veto efficiencies as a function of pt
#         pt            matched eff      resummed eff     fixed-order eff
   2.00000000E+001   4.39283298E-001   5.08742071E-001   3.53874297E-001
   2.50000000E+001   5.22753934E-001   5.86448385E-001   4.59741637E-001
   3.00000000E+001   5.89538036E-001   6.40833231E-001   5.41840375E-001
   3.50000000E+001   6.43831621E-001   6.78408024E-001   6.07203422E-001
   4.00000000E+001   6.88633233E-001   7.03842963E-001   6.60382096E-001
   4.50000000E+001   7.25839780E-001   7.20574940E-001   7.04076620E-001
   5.00000000E+001   7.57307640E-001   7.31200344E-001   7.40608827E-001
   5.50000000E+001   7.84116263E-001   7.37693063E-001   7.71364670E-001
   6.00000000E+001   8.07391450E-001   7.41518708E-001   7.97692154E-001
   6.50000000E+001   8.27674798E-001   7.43707492E-001   8.20307414E-001
   7.00000000E+001   8.45339399E-001   7.44935383E-001   8.39737032E-001
   7.50000000E+001   8.60995961E-001   7.45617994E-001   8.56718559E-001
   8.00000000E+001   8.74865420E-001   7.45997679E-001   8.71580854E-001
   8.50000000E+001   8.87054859E-001   7.46210522E-001   8.84514754E-001
   9.00000000E+001   8.97960718E-001   7.46331435E-001   8.95980819E-001
   9.50000000E+001   9.07599517E-001   7.46401287E-001   9.06043369E-001
   1.00000000E+002   9.16226096E-001   7.46442411E-001   9.14992506E-001
   1.05000000E+002   9.23944134E-001   7.46467109E-001   9.22958070E-001
   1.10000000E+002   9.30772861E-001   7.46482246E-001   9.29978343E-001
   1.15000000E+002   9.36981295E-001   7.46491711E-001   9.36336055E-001
   1.20000000E+002   9.42511339E-001   7.46497749E-001   9.41983453E-001
   1.25000000E+002   9.47523819E-001   7.46501675E-001   9.47088902E-001
   1.30000000E+002   9.52049480E-001   7.46504277E-001   9.51688757E-001
   1.35000000E+002   9.56135547E-001   7.46506032E-001   9.55834505E-001
   1.40000000E+002   9.59800940E-001   7.46507236E-001   9.59548192E-001
   1.45000000E+002   9.63196956E-001   7.46508077E-001   9.62983574E-001
   1.50000000E+002   9.66199813E-001   7.46508674E-001   9.66018715E-001
   1.55000000E+002   9.68976511E-001   7.46509104E-001   9.68822038E-001
   1.60000000E+002   9.71518250E-001   7.46509418E-001   9.71385869E-001
   1.65000000E+002   9.73808718E-001   7.46509651E-001   9.73694766E-001
   1.70000000E+002   9.75919328E-001   7.46509827E-001   9.75820827E-001
   1.75000000E+002   9.77806664E-001   7.46509960E-001   9.77721179E-001
   1.80000000E+002   9.79560088E-001   7.46510063E-001   9.79485619E-001
   1.85000000E+002   9.81143461E-001   7.46510144E-001   9.81078354E-001
   1.90000000E+002   9.82611496E-001   7.46510207E-001   9.82554378E-001
   1.95000000E+002   9.83974237E-001   7.46510258E-001   9.83923965E-001
   2.00000000E+002   9.85201660E-001   7.46510299E-001   9.85157277E-001
   2.05000000E+002   9.86349789E-001   7.46510332E-001   9.86310488E-001
   2.10000000E+002   9.87384169E-001   7.46510359E-001   9.87349271E-001
   2.15000000E+002   9.88321129E-001   7.46510381E-001   9.88290057E-001
   2.20000000E+002   9.89206355E-001   7.46510400E-001   9.89178618E-001
   2.25000000E+002   9.90013138E-001   7.46510416E-001   9.89988317E-001
   2.30000000E+002   9.90759353E-001   7.46510429E-001   9.90737088E-001
   2.35000000E+002   9.91463303E-001   7.46510440E-001   9.91443286E-001
   2.40000000E+002   9.92088243E-001   7.46510450E-001   9.92070208E-001
   2.45000000E+002   9.92679291E-001   7.46510458E-001   9.92663007E-001
