# ./jetvheto -in n3lo-fixed-order/H125-LHC13-R04-mb-0-mt-1725-xmur100-xmuf100-log.fxd -xQ 0.25 -out benchmarks-n3lo-smallR/H125-LHC13-R04-mb-0-mt-1725-xmur100-xmuf100-xQ025-N3LO+NNLLa.R0-2.0.res -scheme a -order 2 -ptmax 500.01 -small-r -fixed_order 3 -loop-mass t -R0 2.0
# process = H    
# collider = pp   
# rts =  13000.000
# M   =    125.000
# muR =    125.000
# muF =    125.000
# Q   =     31.250
# p   =      5.000
# include_c1_squared =   F
# loop_mass  = t   
# alphas(MZ) =    0.11800
# alphas(M) =    0.11264
# alphas(muR) =    0.11264
# Rjet =      0.400
# order = NNLL
# pdf name and set = PDF4LHC15_nnlo_mc.LHgrid,    0
# matching scheme = a
# total cross sections [nb] at LO, NLOdiff, NNLOdiff, N3LOdiff =     0.013801    0.017514    0.010146    0.003834
#----------------------------------------------------------------------
# the lines that follow give the jet-veto efficiencies as a function of pt
#         pt            matched eff      resummed eff     fixed-order eff
   2.00000000E+001   4.69129336E-001   5.45199021E-001   4.70549319E-001
   2.50000000E+001   5.53612163E-001   6.17292328E-001   5.55098689E-001
   3.00000000E+001   6.24267678E-001   6.59684290E-001   6.25631507E-001
   3.50000000E+001   6.79290219E-001   6.82751987E-001   6.80214785E-001
   4.00000000E+001   7.23727586E-001   6.94868788E-001   7.24327023E-001
   4.50000000E+001   7.59723693E-001   7.01272193E-001   7.60109480E-001
   5.00000000E+001   7.90153498E-001   7.04760155E-001   7.90410150E-001
   5.50000000E+001   8.16088813E-001   7.06736402E-001   8.16264683E-001
   6.00000000E+001   8.37913628E-001   7.07902231E-001   8.38035676E-001
   6.50000000E+001   8.57338977E-001   7.08616511E-001   8.57426760E-001
   7.00000000E+001   8.73681256E-001   7.09069390E-001   8.73744963E-001
   7.50000000E+001   8.87295916E-001   7.09365444E-001   8.87342330E-001
   8.00000000E+001   8.99245731E-001   7.09564310E-001   8.99280183E-001
   8.50000000E+001   9.10019906E-001   7.09701159E-001   9.10046058E-001
   9.00000000E+001   9.19197321E-001   7.09797381E-001   9.19217312E-001
   9.50000000E+001   9.27588146E-001   7.09866355E-001   9.27603719E-001
   1.00000000E+002   9.34612302E-001   7.09916662E-001   9.34624471E-001
   1.05000000E+002   9.40908036E-001   7.09953934E-001   9.40917661E-001
   1.10000000E+002   9.46561438E-001   7.09981943E-001   9.46569141E-001
   1.15000000E+002   9.51641773E-001   7.10003265E-001   9.51647991E-001
   1.20000000E+002   9.56054755E-001   7.10019689E-001   9.56059806E-001
   1.25000000E+002   9.59879188E-001   7.10032480E-001   9.59883314E-001
   1.30000000E+002   9.63708276E-001   7.10042540E-001   9.63711695E-001
   1.35000000E+002   9.67051872E-001   7.10050526E-001   9.67054718E-001
   1.40000000E+002   9.69874909E-001   7.10056920E-001   9.69877285E-001
   1.45000000E+002   9.72569105E-001   7.10062081E-001   9.72571106E-001
   1.50000000E+002   9.74851044E-001   7.10066276E-001   9.74852733E-001
   1.55000000E+002   9.77308997E-001   7.10069711E-001   9.77310440E-001
   1.60000000E+002   9.78983090E-001   7.10072540E-001   9.78984317E-001
   1.65000000E+002   9.80774574E-001   7.10074886E-001   9.80775628E-001
   1.70000000E+002   9.82341403E-001   7.10076842E-001   9.82342311E-001
   1.75000000E+002   9.83861964E-001   7.10078481E-001   9.83862750E-001
   1.80000000E+002   9.85257603E-001   7.10079862E-001   9.85258287E-001
   1.85000000E+002   9.86511117E-001   7.10081031E-001   9.86511714E-001
   1.90000000E+002   9.87390804E-001   7.10082025E-001   9.87391325E-001
   1.95000000E+002   9.88517704E-001   7.10082873E-001   9.88518162E-001
   2.00000000E+002   9.89473953E-001   7.10083601E-001   9.89474357E-001
   2.05000000E+002   9.90296782E-001   7.10084227E-001   9.90297139E-001
   2.10000000E+002   9.91032910E-001   7.10084768E-001   9.91033226E-001
   2.15000000E+002   9.91849084E-001   7.10085237E-001   9.91849366E-001
   2.20000000E+002   9.92440517E-001   7.10085644E-001   9.92440768E-001
   2.25000000E+002   9.93063451E-001   7.10086000E-001   9.93063675E-001
   2.30000000E+002   9.93644081E-001   7.10086312E-001   9.93644282E-001
   2.35000000E+002   9.94181328E-001   7.10086585E-001   9.94181508E-001
   2.40000000E+002   9.94545901E-001   7.10086825E-001   9.94546063E-001
   2.45000000E+002   9.95034379E-001   7.10087038E-001   9.95034525E-001
