# ./jetvheto -in n3lo-fixed-order/H125-LHC13-R04-mb-0-mt-1725-xmur050-xmuf050-log.fxd -xQ 0.333 -out benchmarks-n3lo-smallR/H125-LHC13-R04-mb-0-mt-1725-xmur050-xmuf050-xQ033-NNLO+NNLLb.R0-0.5.res -scheme b -order 2 -ptmax 500.01 -small-r -fixed_order 2 -loop-mass t -R0 0.5
# process = H    
# collider = pp   
# rts =  13000.000
# M   =    125.000
# muR =     62.500
# muF =     62.500
# Q   =     41.625
# p   =      5.000
# include_c1_squared =   F
# loop_mass  = t   
# alphas(MZ) =    0.11800
# alphas(M) =    0.11264
# alphas(muR) =    0.12516
# Rjet =      0.400
# order = NNLL
# pdf name and set = PDF4LHC15_nnlo_mc.LHgrid,    0
# matching scheme = b
# total cross sections [nb] at LO, NLOdiff, NNLOdiff, N3LOdiff =     0.015885    0.020561    0.008998    0.001413
#----------------------------------------------------------------------
# the lines that follow give the jet-veto efficiencies as a function of pt
#         pt            matched eff      resummed eff     fixed-order eff
   2.00000000E+001   4.04677713E-001   4.88376947E-001   3.37968833E-001
   2.50000000E+001   4.87674441E-001   5.65420636E-001   4.45490403E-001
   3.00000000E+001   5.55708082E-001   6.17665682E-001   5.29094091E-001
   3.50000000E+001   6.12519796E-001   6.51583570E-001   5.95850260E-001
   4.00000000E+001   6.60508823E-001   6.72681127E-001   6.50115846E-001
   4.50000000E+001   7.01446079E-001   6.85414437E-001   6.94939270E-001
   5.00000000E+001   7.36898441E-001   6.93017291E-001   7.32769177E-001
   5.50000000E+001   7.67034103E-001   6.97588721E-001   7.64361916E-001
   6.00000000E+001   7.93236046E-001   7.00388650E-001   7.91465371E-001
   6.50000000E+001   8.16039982E-001   7.02145462E-001   8.14838120E-001
   7.00000000E+001   8.35913386E-001   7.03276539E-001   8.35078651E-001
   7.50000000E+001   8.53163585E-001   7.04023414E-001   8.52570605E-001
   8.00000000E+001   8.68367175E-001   7.04528499E-001   8.67937405E-001
   8.50000000E+001   8.81795442E-001   7.04877679E-001   8.81478135E-001
   9.00000000E+001   8.93650046E-001   7.05123991E-001   8.93411828E-001
   9.50000000E+001   9.04049675E-001   7.05300960E-001   9.03868009E-001
   1.00000000E+002   9.13406446E-001   7.05430249E-001   9.13265993E-001
   1.05000000E+002   9.21599378E-001   7.05526154E-001   9.21489390E-001
   1.10000000E+002   9.28934951E-001   7.05598290E-001   9.28847842E-001
   1.15000000E+002   9.35521019E-001   7.05653243E-001   9.35451292E-001
   1.20000000E+002   9.41449839E-001   7.05695597E-001   9.41393487E-001
   1.25000000E+002   9.46836402E-001   7.05728592E-001   9.46790455E-001
   1.30000000E+002   9.51594109E-001   7.05754553E-001   9.51556334E-001
   1.35000000E+002   9.55893319E-001   7.05775167E-001   9.55862035E-001
   1.40000000E+002   9.59814798E-001   7.05791675E-001   9.59788706E-001
   1.45000000E+002   9.63378866E-001   7.05804999E-001   9.63356960E-001
   1.50000000E+002   9.66642240E-001   7.05815834E-001   9.66623739E-001
   1.55000000E+002   9.69575191E-001   7.05824704E-001   9.69559478E-001
   1.60000000E+002   9.72241569E-001   7.05832014E-001   9.72228153E-001
   1.65000000E+002   9.74650720E-001   7.05838074E-001   9.74639208E-001
   1.70000000E+002   9.76867004E-001   7.05843126E-001   9.76857081E-001
   1.75000000E+002   9.78878248E-001   7.05847361E-001   9.78869658E-001
   1.80000000E+002   9.80689930E-001   7.05850929E-001   9.80682463E-001
   1.85000000E+002   9.82368245E-001   7.05853948E-001   9.82361728E-001
   1.90000000E+002   9.83902537E-001   7.05856516E-001   9.83896830E-001
   1.95000000E+002   9.85301988E-001   7.05858708E-001   9.85296972E-001
   2.00000000E+002   9.86582781E-001   7.05860588E-001   9.86578358E-001
   2.05000000E+002   9.87756581E-001   7.05862206E-001   9.87752669E-001
   2.10000000E+002   9.88807920E-001   7.05863604E-001   9.88804449E-001
   2.15000000E+002   9.89803015E-001   7.05864815E-001   9.89799927E-001
   2.20000000E+002   9.90712195E-001   7.05865869E-001   9.90709441E-001
   2.25000000E+002   9.91519510E-001   7.05866788E-001   9.91517046E-001
   2.30000000E+002   9.92312710E-001   7.05867593E-001   9.92310501E-001
   2.35000000E+002   9.92994870E-001   7.05868299E-001   9.92992886E-001
   2.40000000E+002   9.93639990E-001   7.05868921E-001   9.93638203E-001
   2.45000000E+002   9.94229980E-001   7.05869469E-001   9.94228366E-001
