# ./jetvheto -in n3lo-fixed-order/H125-LHC13-R04-mb-0-mt-1725-xmur050-xmuf050-log.fxd -xQ 0.125 -out benchmarks-n3lo-smallR/H125-LHC13-R04-mb-0-mt-1725-xmur050-xmuf050-xQ125-N3LO+NNLLb.R0-1.0.res -scheme b -order 2 -ptmax 500.01 -small-r -fixed_order 3 -loop-mass t -R0 1.0
# process = H    
# collider = pp   
# rts =  13000.000
# M   =    125.000
# muR =     62.500
# muF =     62.500
# Q   =     15.625
# p   =      5.000
# include_c1_squared =   F
# loop_mass  = t   
# alphas(MZ) =    0.11800
# alphas(M) =    0.11264
# alphas(muR) =    0.12516
# Rjet =      0.400
# order = NNLL
# pdf name and set = PDF4LHC15_nnlo_mc.LHgrid,    0
# matching scheme = b
# total cross sections [nb] at LO, NLOdiff, NNLOdiff, N3LOdiff =     0.015885    0.020561    0.008998    0.001413
#----------------------------------------------------------------------
# the lines that follow give the jet-veto efficiencies as a function of pt
#         pt            matched eff      resummed eff     fixed-order eff
   2.00000000E+001   4.42715546E-001   4.41512778E-001   4.41643521E-001
   2.50000000E+001   5.29855129E-001   4.56040136E-001   5.29528045E-001
   3.00000000E+001   6.04207660E-001   4.60774215E-001   6.04131024E-001
   3.50000000E+001   6.63351960E-001   4.62548176E-001   6.63337130E-001
   4.00000000E+001   7.09304551E-001   4.63302976E-001   7.09302441E-001
   4.50000000E+001   7.49368222E-001   4.63658964E-001   7.49371437E-001
   5.00000000E+001   7.81699073E-001   4.63841286E-001   7.81702411E-001
   5.50000000E+001   8.09462722E-001   4.63941105E-001   8.09465789E-001
   6.00000000E+001   8.32377076E-001   4.63998835E-001   8.32379427E-001
   6.50000000E+001   8.53502507E-001   4.64033787E-001   8.53504482E-001
   7.00000000E+001   8.69853431E-001   4.64055785E-001   8.69854849E-001
   7.50000000E+001   8.84439517E-001   4.64070097E-001   8.84440584E-001
   8.00000000E+001   8.97582205E-001   4.64079681E-001   8.97583035E-001
   8.50000000E+001   9.09232672E-001   4.64086262E-001   9.09233323E-001
   9.00000000E+001   9.19502148E-001   4.64090882E-001   9.19502663E-001
   9.50000000E+001   9.27727885E-001   4.64094191E-001   9.27728280E-001
   1.00000000E+002   9.35562912E-001   4.64096602E-001   9.35563225E-001
   1.05000000E+002   9.41788124E-001   4.64098388E-001   9.41788367E-001
   1.10000000E+002   9.47502875E-001   4.64099729E-001   9.47503067E-001
   1.15000000E+002   9.52902845E-001   4.64100750E-001   9.52903001E-001
   1.20000000E+002   9.57766269E-001   4.64101536E-001   9.57766396E-001
   1.25000000E+002   9.61821677E-001   4.64102148E-001   9.61821780E-001
   1.30000000E+002   9.65320788E-001   4.64102629E-001   9.65320871E-001
   1.35000000E+002   9.68789850E-001   4.64103011E-001   9.68789919E-001
   1.40000000E+002   9.71951294E-001   4.64103317E-001   9.71951352E-001
   1.45000000E+002   9.74702835E-001   4.64103564E-001   9.74702884E-001
   1.50000000E+002   9.76854407E-001   4.64103764E-001   9.76854447E-001
   1.55000000E+002   9.79289567E-001   4.64103929E-001   9.79289601E-001
   1.60000000E+002   9.81470650E-001   4.64104064E-001   9.81470679E-001
   1.65000000E+002   9.82816894E-001   4.64104176E-001   9.82816919E-001
   1.70000000E+002   9.84547425E-001   4.64104270E-001   9.84547446E-001
   1.75000000E+002   9.86142508E-001   4.64104348E-001   9.86142527E-001
   1.80000000E+002   9.87365612E-001   4.64104414E-001   9.87365627E-001
   1.85000000E+002   9.88489555E-001   4.64104470E-001   9.88489569E-001
   1.90000000E+002   9.89639790E-001   4.64104517E-001   9.89639801E-001
   1.95000000E+002   9.90701712E-001   4.64104558E-001   9.90701722E-001
   2.00000000E+002   9.91640523E-001   4.64104593E-001   9.91640532E-001
   2.05000000E+002   9.92381263E-001   4.64104623E-001   9.92381271E-001
   2.10000000E+002   9.93124349E-001   4.64104649E-001   9.93124356E-001
   2.15000000E+002   9.93702160E-001   4.64104671E-001   9.93702166E-001
   2.20000000E+002   9.94523964E-001   4.64104691E-001   9.94523970E-001
   2.25000000E+002   9.94951210E-001   4.64104708E-001   9.94951215E-001
   2.30000000E+002   9.95476718E-001   4.64104722E-001   9.95476723E-001
   2.35000000E+002   9.95859515E-001   4.64104736E-001   9.95859519E-001
   2.40000000E+002   9.96276751E-001   4.64104747E-001   9.96276754E-001
   2.45000000E+002   9.96764476E-001   4.64104757E-001   9.96764480E-001
