# ./jetvheto -in n3lo-fixed-order/H125-LHC13-R04-heft-xmur050-xmuf050-log.fxd -xQ 0.333 -out benchmarks-n3lo-smallR/H125-LHC13-R04-heft-xmur050-xmuf050-xQ033-NNLO+NNLLb.R0-0.5.res -scheme b -order 2 -ptmax 500.01 -fixed_order 2 -small-r -R0 0.5
# process = H    
# collider = pp   
# rts =  13000.000
# M   =    125.000
# muR =     62.500
# muF =     62.500
# Q   =     41.625
# p   =      5.000
# include_c1_squared =   F
# loop_mass  = none
# alphas(MZ) =    0.11800
# alphas(M) =    0.11264
# alphas(muR) =    0.12516
# Rjet =      0.400
# order = NNLL
# pdf name and set = PDF4LHC15_nnlo_mc.LHgrid,    0
# matching scheme = b
# total cross sections [nb] at LO, NLOdiff, NNLOdiff, N3LOdiff =     0.015055    0.019611    0.008998    0.001413
#----------------------------------------------------------------------
# the lines that follow give the jet-veto efficiencies as a function of pt
#         pt            matched eff      resummed eff     fixed-order eff
   2.00000000E+001   3.91882572E-001   4.84901687E-001   3.20844325E-001
   2.50000000E+001   4.73849227E-001   5.61411825E-001   4.29272444E-001
   3.00000000E+001   5.41868283E-001   6.13297290E-001   5.13978769E-001
   3.50000000E+001   5.98773876E-001   6.46983056E-001   5.81442017E-001
   4.00000000E+001   6.47206696E-001   6.67936960E-001   6.36470582E-001
   4.50000000E+001   6.88737173E-001   6.80583937E-001   6.82049408E-001
   5.00000000E+001   7.24530545E-001   6.88135414E-001   7.20304754E-001
   5.50000000E+001   7.55434914E-001   6.92676025E-001   7.52707770E-001
   6.00000000E+001   7.82095628E-001   6.95457108E-001   7.80293093E-001
   6.50000000E+001   8.05315517E-001   6.97202109E-001   8.04094553E-001
   7.00000000E+001   8.25645861E-001   6.98325586E-001   8.24799203E-001
   7.50000000E+001   8.43289898E-001   6.99067447E-001   8.42689242E-001
   8.00000000E+001   8.58837993E-001   6.99569141E-001   8.58403155E-001
   8.50000000E+001   8.72569339E-001   6.99915978E-001   8.72248607E-001
   9.00000000E+001   8.84730816E-001   7.00160637E-001   8.84490214E-001
   9.50000000E+001   8.95427256E-001   7.00336418E-001   8.95243884E-001
   1.00000000E+002   9.04963853E-001   7.00464840E-001   9.04822178E-001
   1.05000000E+002   9.13408258E-001   7.00560102E-001   9.13297358E-001
   1.10000000E+002   9.20997219E-001   7.00631755E-001   9.20909416E-001
   1.15000000E+002   9.27765200E-001   7.00686339E-001   9.27694941E-001
   1.20000000E+002   9.33868034E-001   7.00728408E-001   9.33811268E-001
   1.25000000E+002   9.39368608E-001   7.00761182E-001   9.39322340E-001
   1.30000000E+002   9.44289432E-001   7.00786969E-001   9.44251399E-001
   1.35000000E+002   9.48767186E-001   7.00807445E-001   9.48735691E-001
   1.40000000E+002   9.52824071E-001   7.00823842E-001   9.52797807E-001
   1.45000000E+002   9.56461504E-001   7.00837077E-001   9.56439457E-001
   1.50000000E+002   9.59804893E-001   7.00847839E-001   9.59786275E-001
   1.55000000E+002   9.62820158E-001   7.00856650E-001   9.62804347E-001
   1.60000000E+002   9.65593168E-001   7.00863911E-001   9.65579670E-001
   1.65000000E+002   9.68093591E-001   7.00869930E-001   9.68082008E-001
   1.70000000E+002   9.70407812E-001   7.00874948E-001   9.70397828E-001
   1.75000000E+002   9.72541198E-001   7.00879155E-001   9.72532555E-001
   1.80000000E+002   9.74468116E-001   7.00882698E-001   9.74460602E-001
   1.85000000E+002   9.76246355E-001   7.00885698E-001   9.76239797E-001
   1.90000000E+002   9.77886295E-001   7.00888248E-001   9.77880551E-001
   1.95000000E+002   9.79380335E-001   7.00890426E-001   9.79375286E-001
   2.00000000E+002   9.80759092E-001   7.00892293E-001   9.80754640E-001
   2.05000000E+002   9.82046692E-001   7.00893900E-001   9.82042753E-001
   2.10000000E+002   9.83216847E-001   7.00895289E-001   9.83213352E-001
   2.15000000E+002   9.84315214E-001   7.00896492E-001   9.84312105E-001
   2.20000000E+002   9.85332180E-001   7.00897539E-001   9.85329407E-001
   2.25000000E+002   9.86243995E-001   7.00898452E-001   9.86241514E-001
   2.30000000E+002   9.87144051E-001   7.00899251E-001   9.87141826E-001
   2.35000000E+002   9.87937633E-001   7.00899952E-001   9.87935633E-001
   2.40000000E+002   9.88689612E-001   7.00900570E-001   9.88687810E-001
   2.45000000E+002   9.89388622E-001   7.00901114E-001   9.89386996E-001
