# ./jetvheto -in n3lo-fixed-order/H125-LHC13-R04-heft-xmur025-xmuf050-log.fxd -xQ 0.50 -out benchmarks-n3lo-smallR/H125-LHC13-R04-heft-xmur025-xmuf050-xQ050-NNLO+NNLLa.R0-1.5.res -scheme a -order 2 -ptmax 500.01 -fixed_order 2 -small-r -R0 1.5
# process = H    
# collider = pp   
# rts =  13000.000
# M   =    125.000
# muR =     31.250
# muF =     62.500
# Q   =     62.500
# p   =      5.000
# include_c1_squared =   F
# loop_mass  = none
# alphas(MZ) =    0.11800
# alphas(M) =    0.11264
# alphas(muR) =    0.14091
# Rjet =      0.400
# order = NNLL
# pdf name and set = PDF4LHC15_nnlo_mc.LHgrid,    0
# matching scheme = a
# total cross sections [nb] at LO, NLOdiff, NNLOdiff, N3LOdiff =     0.019087    0.023444    0.005009   -0.002663
#----------------------------------------------------------------------
# the lines that follow give the jet-veto efficiencies as a function of pt
#         pt            matched eff      resummed eff     fixed-order eff
   2.00000000E+001   4.92608317E-001   5.13332718E-001   4.19560537E-001
   2.50000000E+001   5.70527416E-001   5.77628868E-001   5.10716260E-001
   3.00000000E+001   6.32319477E-001   6.21823160E-001   5.83434226E-001
   3.50000000E+001   6.81731953E-001   6.51779657E-001   6.41987822E-001
   4.00000000E+001   7.22059106E-001   6.71600270E-001   6.90031233E-001
   4.50000000E+001   7.55459844E-001   6.84242081E-001   7.29956332E-001
   5.00000000E+001   7.83589134E-001   6.91927356E-001   7.63542120E-001
   5.50000000E+001   8.07553460E-001   6.96339315E-001   7.91973686E-001
   6.00000000E+001   8.28163474E-001   6.98712226E-001   8.16161222E-001
   6.50000000E+001   8.46201424E-001   6.99893133E-001   8.37000077E-001
   7.00000000E+001   8.62160051E-001   7.00422154E-001   8.55114547E-001
   7.50000000E+001   8.76095228E-001   7.00617889E-001   8.70689778E-001
   8.00000000E+001   8.88517121E-001   7.00655408E-001   8.84350942E-001
   8.50000000E+001   8.99581541E-001   7.00625035E-001   8.96350109E-001
   9.00000000E+001   9.09455304E-001   7.00570944E-001   9.06930305E-001
   9.50000000E+001   9.18146911E-001   7.00513253E-001   9.16158177E-001
   1.00000000E+002   9.25950920E-001   7.00460216E-001   9.24371811E-001
   1.05000000E+002   9.32846363E-001   7.00414522E-001   9.31582275E-001
   1.10000000E+002   9.39064839E-001   7.00376403E-001   9.38044868E-001
   1.15000000E+002   9.44608522E-001   7.00345118E-001   9.43779261E-001
   1.20000000E+002   9.49605110E-001   7.00319642E-001   9.48925946E-001
   1.25000000E+002   9.54112226E-001   7.00298952E-001   9.53552139E-001
   1.30000000E+002   9.58113769E-001   7.00282146E-001   9.57648838E-001
   1.35000000E+002   9.61762586E-001   7.00268465E-001   9.61374247E-001
   1.40000000E+002   9.65055928E-001   7.00257292E-001   9.64729653E-001
   1.45000000E+002   9.67992625E-001   7.00248132E-001   9.67716988E-001
   1.50000000E+002   9.70693583E-001   7.00240590E-001   9.70459499E-001
   1.55000000E+002   9.73116486E-001   7.00234351E-001   9.72916714E-001
   1.60000000E+002   9.75332341E-001   7.00229168E-001   9.75161046E-001
   1.65000000E+002   9.77316847E-001   7.00224841E-001   9.77169324E-001
   1.70000000E+002   9.79153114E-001   7.00221213E-001   9.79025530E-001
   1.75000000E+002   9.80844702E-001   7.00218157E-001   9.80733923E-001
   1.80000000E+002   9.82350270E-001   7.00215573E-001   9.82253720E-001
   1.85000000E+002   9.83738101E-001   7.00213378E-001   9.83653652E-001
   1.90000000E+002   9.85015959E-001   7.00211506E-001   9.84941842E-001
   1.95000000E+002   9.86167968E-001   7.00209904E-001   9.86102709E-001
   2.00000000E+002   9.87224675E-001   7.00208528E-001   9.87167038E-001
   2.05000000E+002   9.88210944E-001   7.00207341E-001   9.88159887E-001
   2.10000000E+002   9.89091970E-001   7.00206315E-001   9.89046616E-001
   2.15000000E+002   9.89925102E-001   7.00205424E-001   9.89884706E-001
   2.20000000E+002   9.90692226E-001   7.00204648E-001   9.90656152E-001
   2.25000000E+002   9.91361123E-001   7.00203970E-001   9.91328831E-001
   2.30000000E+002   9.92042506E-001   7.00203377E-001   9.92013530E-001
   2.35000000E+002   9.92624492E-001   7.00202855E-001   9.92598433E-001
   2.40000000E+002   9.93175191E-001   7.00202396E-001   9.93151705E-001
   2.45000000E+002   9.93685601E-001   7.00201991E-001   9.93664390E-001
