# ./jetvheto -in n3lo-fixed-order/H125-LHC13-R04-mb-0-mt-1725-xmur050-xmuf050-log.fxd -xQ 0.25 -out benchmarks-n3lo-smallR/H125-LHC13-R04-mb-0-mt-1725-xmur050-xmuf050-xQ025-NNLO+NNLLb.res -scheme b -order 2 -ptmax 500.01 -fixed_order 2 -loop-mass t
# process = H    
# collider = pp   
# rts =  13000.000
# M   =    125.000
# muR =     62.500
# muF =     62.500
# Q   =     31.250
# p   =      5.000
# include_c1_squared =   F
# loop_mass  = t   
# alphas(MZ) =    0.11800
# alphas(M) =    0.11264
# alphas(muR) =    0.12516
# Rjet =      0.400
# order = NNLL
# pdf name and set = PDF4LHC15_nnlo_mc.LHgrid,    0
# matching scheme = b
# total cross sections [nb] at LO, NLOdiff, NNLOdiff, N3LOdiff =     0.015885    0.020561    0.008998    0.001413
#----------------------------------------------------------------------
# the lines that follow give the jet-veto efficiencies as a function of pt
#         pt            matched eff      resummed eff     fixed-order eff
   2.00000000E+001   3.88602396E-001   4.94414941E-001   3.37968833E-001
   2.50000000E+001   4.72258590E-001   5.64563484E-001   4.45490403E-001
   3.00000000E+001   5.42849655E-001   6.06098096E-001   5.29094091E-001
   3.50000000E+001   6.02907226E-001   6.28808121E-001   5.95850260E-001
   4.00000000E+001   6.53823719E-001   6.40772269E-001   6.50115846E-001
   4.50000000E+001   6.96964705E-001   6.47105559E-001   6.94939270E-001
   5.00000000E+001   7.33925074E-001   6.50558633E-001   7.32769177E-001
   5.50000000E+001   7.65050586E-001   6.52516191E-001   7.64361916E-001
   6.00000000E+001   7.91892593E-001   6.53671367E-001   7.91465371E-001
   6.50000000E+001   8.15112838E-001   6.54379260E-001   8.14838120E-001
   7.00000000E+001   8.35260951E-001   6.54828143E-001   8.35078651E-001
   7.50000000E+001   8.52695223E-001   6.55121609E-001   8.52570605E-001
   8.00000000E+001   8.68024749E-001   6.55318747E-001   8.67937405E-001
   8.50000000E+001   8.81540760E-001   6.55454411E-001   8.81478135E-001
   9.00000000E+001   8.93457643E-001   6.55549802E-001   8.93411828E-001
   9.50000000E+001   9.03902175E-001   6.55618183E-001   9.03868009E-001
   1.00000000E+002   9.13291882E-001   6.55668057E-001   9.13265993E-001
   1.05000000E+002   9.21509314E-001   6.55705009E-001   9.21489390E-001
   1.10000000E+002   9.28863377E-001   6.55732777E-001   9.28847842E-001
   1.15000000E+002   9.35463556E-001   6.55753916E-001   9.35451292E-001
   1.20000000E+002   9.41403277E-001   6.55770200E-001   9.41393487E-001
   1.25000000E+002   9.46798350E-001   6.55782880E-001   9.46790455E-001
   1.30000000E+002   9.51562763E-001   6.55792854E-001   9.51556334E-001
   1.35000000E+002   9.55867314E-001   6.55800772E-001   9.55862035E-001
   1.40000000E+002   9.59793075E-001   6.55807112E-001   9.59788706E-001
   1.45000000E+002   9.63360603E-001   6.55812228E-001   9.63356960E-001
   1.50000000E+002   9.66626798E-001   6.55816387E-001   9.66623739E-001
   1.55000000E+002   9.69562062E-001   6.55819792E-001   9.69559478E-001
   1.60000000E+002   9.72230348E-001   6.55822598E-001   9.72228153E-001
   1.65000000E+002   9.74641084E-001   6.55824924E-001   9.74639208E-001
   1.70000000E+002   9.76858692E-001   6.55826863E-001   9.76857081E-001
   1.75000000E+002   9.78871048E-001   6.55828488E-001   9.78869658E-001
   1.80000000E+002   9.80683667E-001   6.55829857E-001   9.80682463E-001
   1.85000000E+002   9.82362777E-001   6.55831016E-001   9.82361728E-001
   1.90000000E+002   9.83897746E-001   6.55832001E-001   9.83896830E-001
   1.95000000E+002   9.85297776E-001   6.55832842E-001   9.85296972E-001
   2.00000000E+002   9.86579065E-001   6.55833564E-001   9.86578358E-001
   2.05000000E+002   9.87753293E-001   6.55834184E-001   9.87752669E-001
   2.10000000E+002   9.88805002E-001   6.55834721E-001   9.88804449E-001
   2.15000000E+002   9.89800419E-001   6.55835186E-001   9.89799927E-001
   2.20000000E+002   9.90709879E-001   6.55835590E-001   9.90709441E-001
   2.25000000E+002   9.91517438E-001   6.55835943E-001   9.91517046E-001
   2.30000000E+002   9.92310852E-001   6.55836251E-001   9.92310501E-001
   2.35000000E+002   9.92993201E-001   6.55836522E-001   9.92992886E-001
   2.40000000E+002   9.93638486E-001   6.55836761E-001   9.93638203E-001
   2.45000000E+002   9.94228622E-001   6.55836971E-001   9.94228366E-001
