# ./jetvheto -in n3lo-fixed-order/H125-LHC13-R04-mb-475-mt-1725-xmur025-xmuf050-log.fxd -xQ 0.25 -out benchmarks-n3lo-smallR/H125-LHC13-R04-mb-475-mt-1725-xmur025-xmuf050-xQ025-N3LO+NNLLb.R0-0.5.res -scheme b -order 2 -ptmax 500.01 -fixed_order 3 -small-r -loop-mass t+b -R0 0.5
# process = H    
# collider = pp   
# rts =  13000.000
# M   =    125.000
# muR =     31.250
# muF =     62.500
# Q   =     31.250
# p   =      5.000
# include_c1_squared =   F
# loop_mass  = t+b 
# alphas(MZ) =    0.11800
# alphas(M) =    0.11264
# alphas(muR) =    0.14091
# Rjet =      0.400
# order = NNLL
# pdf name and set = PDF4LHC15_nnlo_mc.LHgrid,    0
# matching scheme = b
# total cross sections [nb] at LO, NLOdiff, NNLOdiff, N3LOdiff =     0.017683    0.024805    0.005009   -0.002663
#----------------------------------------------------------------------
# the lines that follow give the jet-veto efficiencies as a function of pt
#         pt            matched eff      resummed eff     fixed-order eff
   2.00000000E+001   4.62686912E-001   4.23669024E-001   4.77630795E-001
   2.50000000E+001   5.48692458E-001   4.82919680E-001   5.55490405E-001
   3.00000000E+001   6.23649407E-001   5.17899652E-001   6.27139586E-001
   3.50000000E+001   6.82202757E-001   5.36990079E-001   6.83914005E-001
   4.00000000E+001   7.25683371E-001   5.47036100E-001   7.26455264E-001
   4.50000000E+001   7.65193035E-001   5.52350635E-001   7.65589394E-001
   5.00000000E+001   7.95778106E-001   5.55247225E-001   7.95971836E-001
   5.50000000E+001   8.22898297E-001   5.56888978E-001   8.23001148E-001
   6.00000000E+001   8.44567212E-001   5.57857679E-001   8.44619420E-001
   6.50000000E+001   8.65590181E-001   5.58451258E-001   8.65621325E-001
   7.00000000E+001   8.80550377E-001   5.58827636E-001   8.80565053E-001
   7.50000000E+001   8.94297345E-001   5.59073694E-001   8.94304462E-001
   8.00000000E+001   9.06977978E-001   5.59238981E-001   9.06981466E-001
   8.50000000E+001   9.18312732E-001   5.59352726E-001   9.18314335E-001
   9.00000000E+001   9.28266094E-001   5.59432704E-001   9.28266666E-001
   9.50000000E+001   9.35710319E-001   5.59490035E-001   9.35709992E-001
   1.00000000E+002   9.43137035E-001   5.59531850E-001   9.43136433E-001
   1.05000000E+002   9.48651859E-001   5.59562830E-001   9.48650978E-001
   1.10000000E+002   9.53801489E-001   5.59586111E-001   9.53800536E-001
   1.15000000E+002   9.58920405E-001   5.59603834E-001   9.58919523E-001
   1.20000000E+002   9.63511394E-001   5.59617487E-001   9.63510598E-001
   1.25000000E+002   9.67061536E-001   5.59628118E-001   9.67060783E-001
   1.30000000E+002   9.70086829E-001   5.59636480E-001   9.70086131E-001
   1.35000000E+002   9.73358117E-001   5.59643119E-001   9.73357507E-001
   1.40000000E+002   9.76338087E-001   5.59648434E-001   9.76337556E-001
   1.45000000E+002   9.78818111E-001   5.59652723E-001   9.78817643E-001
   1.50000000E+002   9.80453779E-001   5.59656210E-001   9.80453348E-001
   1.55000000E+002   9.82811586E-001   5.59659065E-001   9.82811216E-001
   1.60000000E+002   9.84896843E-001   5.59661417E-001   9.84896523E-001
   1.65000000E+002   9.85704758E-001   5.59663367E-001   9.85704461E-001
   1.70000000E+002   9.87283957E-001   5.59664993E-001   9.87283697E-001
   1.75000000E+002   9.88791739E-001   5.59666355E-001   9.88791511E-001
   1.80000000E+002   9.89774786E-001   5.59667503E-001   9.89774582E-001
   1.85000000E+002   9.90674913E-001   5.59668475E-001   9.90674731E-001
   1.90000000E+002   9.91706253E-001   5.59669301E-001   9.91706092E-001
   1.95000000E+002   9.92670125E-001   5.59670006E-001   9.92669982E-001
   2.00000000E+002   9.93492739E-001   5.59670611E-001   9.93492612E-001
   2.05000000E+002   9.94045922E-001   5.59671131E-001   9.94045808E-001
   2.10000000E+002   9.94679874E-001   5.59671581E-001   9.94679771E-001
   2.15000000E+002   9.95064509E-001   5.59671971E-001   9.95064416E-001
   2.20000000E+002   9.95928470E-001   5.59672310E-001   9.95928387E-001
   2.25000000E+002   9.96170321E-001   5.59672605E-001   9.96170247E-001
   2.30000000E+002   9.96582450E-001   5.59672864E-001   9.96582383E-001
   2.35000000E+002   9.96828837E-001   5.59673091E-001   9.96828776E-001
   2.40000000E+002   9.97153152E-001   5.59673291E-001   9.97153096E-001
   2.45000000E+002   9.97627163E-001   5.59673468E-001   9.97627113E-001
