# ./jetvheto -in n3lo-fixed-order/H125-LHC13-R04-mb-0-mt-1725-xmur100-xmuf100-log.fxd -xQ 0.75 -out benchmarks-n3lo-smallR/H125-LHC13-R04-mb-0-mt-1725-xmur100-xmuf100-xQ075-N3LO+NNLLa.R0-1.0.res -scheme a -order 2 -ptmax 500.01 -small-r -fixed_order 3 -loop-mass t -R0 1.0
# process = H    
# collider = pp   
# rts =  13000.000
# M   =    125.000
# muR =    125.000
# muF =    125.000
# Q   =     93.750
# p   =      5.000
# include_c1_squared =   F
# loop_mass  = t   
# alphas(MZ) =    0.11800
# alphas(M) =    0.11264
# alphas(muR) =    0.11264
# Rjet =      0.400
# order = NNLL
# pdf name and set = PDF4LHC15_nnlo_mc.LHgrid,    0
# matching scheme = a
# total cross sections [nb] at LO, NLOdiff, NNLOdiff, N3LOdiff =     0.013801    0.017514    0.010146    0.003834
#----------------------------------------------------------------------
# the lines that follow give the jet-veto efficiencies as a function of pt
#         pt            matched eff      resummed eff     fixed-order eff
   2.00000000E+001   4.79678747E-001   5.52866183E-001   4.70549319E-001
   2.50000000E+001   5.66660137E-001   6.38654066E-001   5.55098689E-001
   3.00000000E+001   6.38805632E-001   6.99454453E-001   6.25631507E-001
   3.50000000E+001   6.94829664E-001   7.42216089E-001   6.80214785E-001
   4.00000000E+001   7.39708020E-001   7.71866384E-001   7.24327023E-001
   4.50000000E+001   7.75614829E-001   7.91908272E-001   7.60109480E-001
   5.00000000E+001   8.05532416E-001   8.04854845E-001   7.90410150E-001
   5.50000000E+001   8.30633561E-001   8.12567727E-001   8.16264683E-001
   6.00000000E+001   8.51377600E-001   8.16459384E-001   8.38035676E-001
   6.50000000E+001   8.69606556E-001   8.17626900E-001   8.57426760E-001
   7.00000000E+001   8.84659506E-001   8.16931357E-001   8.73744963E-001
   7.50000000E+001   8.96951878E-001   8.15045781E-001   8.87342330E-001
   8.00000000E+001   9.07634539E-001   8.12488446E-001   8.99280183E-001
   8.50000000E+001   9.17239957E-001   8.09643331E-001   9.10046058E-001
   9.00000000E+001   9.25349698E-001   8.06779338E-001   9.19217312E-001
   9.50000000E+001   9.32803458E-001   8.04068633E-001   9.27603719E-001
   1.00000000E+002   9.39003900E-001   8.01607846E-001   9.34624471E-001
   1.05000000E+002   9.44596880E-001   7.99438655E-001   9.40917661E-001
   1.10000000E+002   9.49657373E-001   7.97566077E-001   9.46569141E-001
   1.15000000E+002   9.54240237E-001   7.95973200E-001   9.51647991E-001
   1.20000000E+002   9.58236865E-001   7.94631727E-001   9.56059806E-001
   1.25000000E+002   9.61714118E-001   7.93509255E-001   9.59883314E-001
   1.30000000E+002   9.65257934E-001   7.92573556E-001   9.63711695E-001
   1.35000000E+002   9.68363891E-001   7.91794885E-001   9.67054718E-001
   1.40000000E+002   9.70988236E-001   7.91147003E-001   9.69877285E-001
   1.45000000E+002   9.73517744E-001   7.90607420E-001   9.72571106E-001
   1.50000000E+002   9.75661685E-001   7.90157224E-001   9.74852733E-001
   1.55000000E+002   9.78005375E-001   7.89780703E-001   9.77310440E-001
   1.60000000E+002   9.79581918E-001   7.89464913E-001   9.78984317E-001
   1.65000000E+002   9.81292037E-001   7.89199235E-001   9.80775628E-001
   1.70000000E+002   9.82789988E-001   7.88974983E-001   9.82342311E-001
   1.75000000E+002   9.84252351E-001   7.88785055E-001   9.83862750E-001
   1.80000000E+002   9.85598459E-001   7.88623646E-001   9.85258287E-001
   1.85000000E+002   9.86809654E-001   7.88486003E-001   9.86511714E-001
   1.90000000E+002   9.87652769E-001   7.88368225E-001   9.87391325E-001
   1.95000000E+002   9.88748616E-001   7.88267109E-001   9.88518162E-001
   2.00000000E+002   9.89678009E-001   7.88180012E-001   9.89474357E-001
   2.05000000E+002   9.90477558E-001   7.88104749E-001   9.90297139E-001
   2.10000000E+002   9.91193486E-001   7.88039510E-001   9.91033226E-001
   2.15000000E+002   9.91992177E-001   7.87982788E-001   9.91849366E-001
   2.20000000E+002   9.92568252E-001   7.87933327E-001   9.92440768E-001
   2.25000000E+002   9.93177793E-001   7.87890074E-001   9.93063675E-001
   2.30000000E+002   9.93746672E-001   7.87852147E-001   9.93644282E-001
   2.35000000E+002   9.94273579E-001   7.87818800E-001   9.94181508E-001
   2.40000000E+002   9.94628985E-001   7.87789406E-001   9.94546063E-001
   2.45000000E+002   9.95109414E-001   7.87763431E-001   9.95034525E-001
