# ./jetvheto -in n3lo-fixed-order/H125-LHC13-R04-heft-xmur100-xmuf100-log.fxd -xQ 0.75 -out benchmarks-n3lo-smallR/H125-LHC13-R04-heft-xmur100-xmuf100-xQ075-NNLO+NNLLb.R0-2.0.res -scheme b -order 2 -ptmax 500.01 -fixed_order 2 -small-r -R0 2.0
# process = H    
# collider = pp   
# rts =  13000.000
# M   =    125.000
# muR =    125.000
# muF =    125.000
# Q   =     93.750
# p   =      5.000
# include_c1_squared =   F
# loop_mass  = none
# alphas(MZ) =    0.11800
# alphas(M) =    0.11264
# alphas(muR) =    0.11264
# Rjet =      0.400
# order = NNLL
# pdf name and set = PDF4LHC15_nnlo_mc.LHgrid,    0
# matching scheme = b
# total cross sections [nb] at LO, NLOdiff, NNLOdiff, N3LOdiff =     0.012945    0.016716    0.010146    0.003834
#----------------------------------------------------------------------
# the lines that follow give the jet-veto efficiencies as a function of pt
#         pt            matched eff      resummed eff     fixed-order eff
   2.00000000E+001   4.46162885E-001   5.64839100E-001   3.33152974E-001
   2.50000000E+001   5.28261647E-001   6.45754205E-001   4.42354030E-001
   3.00000000E+001   5.94644481E-001   7.02680887E-001   5.26280770E-001
   3.50000000E+001   6.48770478E-001   7.42422599E-001   5.92590428E-001
   4.00000000E+001   6.93594056E-001   7.69731575E-001   6.46413459E-001
   4.50000000E+001   7.30826826E-001   7.87960837E-001   6.90650611E-001
   5.00000000E+001   7.62119126E-001   7.99505483E-001   7.27636368E-001
   5.50000000E+001   7.88516684E-001   8.06136246E-001   7.58824117E-001
   6.00000000E+001   8.11081163E-001   8.09195536E-001   7.85509225E-001
   6.50000000E+001   8.30480528E-001   8.09725897E-001   8.08501674E-001
   7.00000000E+001   8.47127732E-001   8.08545464E-001   8.28308351E-001
   7.50000000E+001   8.61648296E-001   8.06293151E-001   8.45602652E-001
   8.00000000E+001   8.74360835E-001   8.03460015E-001   8.60742611E-001
   8.50000000E+001   8.85488584E-001   8.00408395E-001   8.73982907E-001
   9.00000000E+001   8.95451148E-001   7.97390154E-001   8.85762882E-001
   9.50000000E+001   9.04263360E-001   7.94564241E-001   8.96129047E-001
   1.00000000E+002   9.12166074E-001   7.92017206E-001   9.05347624E-001
   1.05000000E+002   9.19286958E-001   7.89783153E-001   9.13574722E-001
   1.10000000E+002   9.25676085E-001   7.87861487E-001   9.20889329E-001
   1.15000000E+002   9.31512636E-001   7.86231173E-001   9.27495781E-001
   1.20000000E+002   9.36784587E-001   7.84860907E-001   9.33407561E-001
   1.25000000E+002   9.41586168E-001   7.83716091E-001   9.38739831E-001
   1.30000000E+002   9.45950234E-001   7.82762896E-001   9.43544289E-001
   1.35000000E+002   9.49962408E-001   7.81970403E-001   9.47922026E-001
   1.40000000E+002   9.53569235E-001   7.81311508E-001   9.51833307E-001
   1.45000000E+002   9.56940356E-001   7.80763078E-001   9.55457933E-001
   1.50000000E+002   9.59956660E-001   7.80305718E-001   9.58686494E-001
   1.55000000E+002   9.62742782E-001   7.79923356E-001   9.61650523E-001
   1.60000000E+002   9.65322807E-001   7.79602768E-001   9.64380158E-001
   1.65000000E+002   9.67669579E-001   7.79333125E-001   9.66853279E-001
   1.70000000E+002   9.69855876E-001   7.79105576E-001   9.69146535E-001
   1.75000000E+002   9.71836734E-001   7.78912891E-001   9.71218357E-001
   1.80000000E+002   9.73686895E-001   7.78749165E-001   9.73146048E-001
   1.85000000E+002   9.75372914E-001   7.78609562E-001   9.74898433E-001
   1.90000000E+002   9.76936507E-001   7.78490122E-001   9.76518987E-001
   1.95000000E+002   9.78409870E-001   7.78387588E-001   9.78041382E-001
   2.00000000E+002   9.79759113E-001   7.78299277E-001   9.79433004E-001
   2.05000000E+002   9.81015989E-001   7.78222970E-001   9.80726600E-001
   2.10000000E+002   9.82170366E-001   7.78156830E-001   9.81912904E-001
   2.15000000E+002   9.83226869E-001   7.78099327E-001   9.82997248E-001
   2.20000000E+002   9.84224181E-001   7.78049188E-001   9.84018885E-001
   2.25000000E+002   9.85146015E-001   7.78005343E-001   9.84962045E-001
   2.30000000E+002   9.86007780E-001   7.77966898E-001   9.85842551E-001
   2.35000000E+002   9.86829730E-001   7.77933098E-001   9.86681004E-001
   2.40000000E+002   9.87573481E-001   7.77903304E-001   9.87439341E-001
   2.45000000E+002   9.88277373E-001   7.77876977E-001   9.88156143E-001
