# ./jetvheto -in n3lo-fixed-order/H125-LHC13-R04-mb-0-mt-1725-xmur025-xmuf025-log.fxd -xQ 0.5 -out benchmarks-n3lo-smallR/H125-LHC13-R04-mb-0-mt-1725-xmur025-xmuf025-xQ050-NNLO+NNLLb.R0-0.5.res -scheme b -order 2 -ptmax 500.01 -small-r -fixed_order 2 -loop-mass t -R0 0.5
# process = H    
# collider = pp   
# rts =  13000.000
# M   =    125.000
# muR =     31.250
# muF =     31.250
# Q   =     62.500
# p   =      5.000
# include_c1_squared =   F
# loop_mass  = t   
# alphas(MZ) =    0.11800
# alphas(M) =    0.11264
# alphas(muR) =    0.14091
# Rjet =      0.400
# order = NNLL
# pdf name and set = PDF4LHC15_nnlo_mc.LHgrid,    0
# matching scheme = b
# total cross sections [nb] at LO, NLOdiff, NNLOdiff, N3LOdiff =     0.018140    0.025356    0.006043   -0.002471
#----------------------------------------------------------------------
# the lines that follow give the jet-veto efficiencies as a function of pt
#         pt            matched eff      resummed eff     fixed-order eff
   2.00000000E+001   4.47103029E-001   4.84498124E-001   3.51600386E-001
   2.50000000E+001   5.29136486E-001   5.56299039E-001   4.53985492E-001
   3.00000000E+001   5.94518131E-001   6.06300396E-001   5.35336815E-001
   3.50000000E+001   6.47863211E-001   6.40665317E-001   6.01450914E-001
   4.00000000E+001   6.91870653E-001   6.63827129E-001   6.55707630E-001
   4.50000000E+001   7.28732194E-001   6.78986340E-001   7.00809251E-001
   5.00000000E+001   7.60145905E-001   6.88545035E-001   7.38750758E-001
   5.50000000E+001   7.87130369E-001   6.94333059E-001   7.70859819E-001
   6.00000000E+001   8.10674832E-001   6.97702705E-001   7.98354652E-001
   6.50000000E+001   8.31364918E-001   6.99598875E-001   8.22044881E-001
   7.00000000E+001   8.49661515E-001   7.00638578E-001   8.42597642E-001
   7.50000000E+001   8.65626813E-001   7.01198776E-001   8.60248412E-001
   8.00000000E+001   8.80002492E-001   7.01497551E-001   8.75880788E-001
   8.50000000E+001   8.92682432E-001   7.01655869E-001   8.89499593E-001
   9.00000000E+001   9.04007104E-001   7.01739240E-001   9.01528041E-001
   9.50000000E+001   9.13960523E-001   7.01782692E-001   9.12012715E-001
   1.00000000E+002   9.22921774E-001   7.01804876E-001   9.21377846E-001
   1.05000000E+002   9.30958484E-001   7.01815735E-001   9.29724151E-001
   1.10000000E+002   9.38091787E-001   7.01820589E-001   9.37096897E-001
   1.15000000E+002   9.44556231E-001   7.01822299E-001   9.43747922E-001
   1.20000000E+002   9.50330158E-001   7.01822407E-001   9.49668478E-001
   1.25000000E+002   9.55413277E-001   7.01821743E-001   9.54867796E-001
   1.30000000E+002   9.60055807E-001   7.01820752E-001   9.59603121E-001
   1.35000000E+002   9.64229879E-001   7.01819666E-001   9.63851855E-001
   1.40000000E+002   9.67989102E-001   7.01818604E-001   9.67671517E-001
   1.45000000E+002   9.71430817E-001   7.01817620E-001   9.71162513E-001
   1.50000000E+002   9.74483936E-001   7.01816736E-001   9.74256073E-001
   1.55000000E+002   9.77246929E-001   7.01815957E-001   9.77052447E-001
   1.60000000E+002   9.79774310E-001   7.01815276E-001   9.79607538E-001
   1.65000000E+002   9.82067330E-001   7.01814685E-001   9.81923690E-001
   1.70000000E+002   9.84101823E-001   7.01814174E-001   9.83977585E-001
   1.75000000E+002   9.85963735E-001   7.01813733E-001   9.85855855E-001
   1.80000000E+002   9.87652182E-001   7.01813352E-001   9.87558150E-001
   1.85000000E+002   9.89159854E-001   7.01813023E-001   9.89077597E-001
   1.90000000E+002   9.90559332E-001   7.01812739E-001   9.90487132E-001
   1.95000000E+002   9.91843914E-001   7.01812493E-001   9.91780336E-001
   2.00000000E+002   9.92979195E-001   7.01812279E-001   9.92923037E-001
   2.05000000E+002   9.94038067E-001   7.01812093E-001   9.93988317E-001
   2.10000000E+002   9.95010984E-001   7.01811932E-001   9.94966787E-001
   2.15000000E+002   9.95835098E-001   7.01811790E-001   9.95795730E-001
   2.20000000E+002   9.96620702E-001   7.01811667E-001   9.96585546E-001
   2.25000000E+002   9.97344833E-001   7.01811558E-001   9.97313360E-001
   2.30000000E+002   9.97972005E-001   7.01811463E-001   9.97943763E-001
   2.35000000E+002   9.98542634E-001   7.01811378E-001   9.98517235E-001
   2.40000000E+002   9.99049211E-001   7.01811304E-001   9.99026319E-001
   2.45000000E+002   9.99523626E-001   7.01811238E-001   9.99502951E-001
