# ./jetvheto -in n3lo-fixed-order/H125-LHC13-R04-mb-475-mt-1725-xmur050-xmuf100-log.fxd -xQ 0.0625 -out benchmarks-n3lo-smallR/H125-LHC13-R04-mb-475-mt-1725-xmur050-xmuf100-xQ0625-N3LO+NNLLb.R0-1.5.res -scheme b -order 2 -ptmax 500.01 -fixed_order 3 -small-r -loop-mass t+b -R0 1.5
# process = H    
# collider = pp   
# rts =  13000.000
# M   =    125.000
# muR =     62.500
# muF =    125.000
# Q   =      7.812
# p   =      5.000
# include_c1_squared =   F
# loop_mass  = t+b 
# alphas(MZ) =    0.11800
# alphas(M) =    0.11264
# alphas(muR) =    0.12516
# Rjet =      0.400
# order = NNLL
# pdf name and set = PDF4LHC15_nnlo_mc.LHgrid,    0
# matching scheme = b
# total cross sections [nb] at LO, NLOdiff, NNLOdiff, N3LOdiff =     0.015023    0.020252    0.008553    0.000949
#----------------------------------------------------------------------
# the lines that follow give the jet-veto efficiencies as a function of pt
#         pt            matched eff      resummed eff     fixed-order eff
   2.00000000E+001   4.22073461E-001   1.74431440E-001   4.22022001E-001
   2.50000000E+001   5.10316565E-001   1.74795948E-001   5.10305136E-001
   3.00000000E+001   5.88327078E-001   1.74902706E-001   5.88327259E-001
   3.50000000E+001   6.48205339E-001   1.74941305E-001   6.48206817E-001
   4.00000000E+001   6.96567233E-001   1.74957502E-001   6.96568548E-001
   4.50000000E+001   7.35801154E-001   1.74965095E-001   7.35802106E-001
   5.00000000E+001   7.69385388E-001   1.74968972E-001   7.69386078E-001
   5.50000000E+001   7.98313202E-001   1.74971092E-001   7.98313706E-001
   6.00000000E+001   8.22547278E-001   1.74972317E-001   8.22547640E-001
   6.50000000E+001   8.44619300E-001   1.74973058E-001   8.44619571E-001
   7.00000000E+001   8.63058577E-001   1.74973524E-001   8.63058779E-001
   7.50000000E+001   8.77920887E-001   1.74973827E-001   8.77921035E-001
   8.00000000E+001   8.91053376E-001   1.74974030E-001   8.91053486E-001
   8.50000000E+001   9.03126408E-001   1.74974170E-001   9.03126493E-001
   9.00000000E+001   9.13245202E-001   1.74974268E-001   9.13245267E-001
   9.50000000E+001   9.22701962E-001   1.74974338E-001   9.22702012E-001
   1.00000000E+002   9.30318838E-001   1.74974389E-001   9.30318877E-001
   1.05000000E+002   9.37202883E-001   1.74974427E-001   9.37202914E-001
   1.10000000E+002   9.43440454E-001   1.74974455E-001   9.43440479E-001
   1.15000000E+002   9.49016051E-001   1.74974477E-001   9.49016071E-001
   1.20000000E+002   9.53754622E-001   1.74974493E-001   9.53754638E-001
   1.25000000E+002   9.57795239E-001   1.74974506E-001   9.57795252E-001
   1.30000000E+002   9.62077651E-001   1.74974517E-001   9.62077662E-001
   1.35000000E+002   9.65782475E-001   1.74974525E-001   9.65782485E-001
   1.40000000E+002   9.68762939E-001   1.74974531E-001   9.68762947E-001
   1.45000000E+002   9.71687631E-001   1.74974536E-001   9.71687638E-001
   1.50000000E+002   9.74089032E-001   1.74974541E-001   9.74089037E-001
   1.55000000E+002   9.76918778E-001   1.74974544E-001   9.76918783E-001
   1.60000000E+002   9.78485308E-001   1.74974547E-001   9.78485312E-001
   1.65000000E+002   9.80405308E-001   1.74974549E-001   9.80405311E-001
   1.70000000E+002   9.82026683E-001   1.74974551E-001   9.82026686E-001
   1.75000000E+002   9.83689268E-001   1.74974553E-001   9.83689270E-001
   1.80000000E+002   9.85194863E-001   1.74974554E-001   9.85194866E-001
   1.85000000E+002   9.86548346E-001   1.74974556E-001   9.86548347E-001
   1.90000000E+002   9.87302034E-001   1.74974557E-001   9.87302036E-001
   1.95000000E+002   9.88556265E-001   1.74974557E-001   9.88556267E-001
   2.00000000E+002   9.89579749E-001   1.74974558E-001   9.89579750E-001
   2.05000000E+002   9.90407958E-001   1.74974559E-001   9.90407959E-001
   2.10000000E+002   9.91151435E-001   1.74974559E-001   9.91151437E-001
   2.15000000E+002   9.92075202E-001   1.74974560E-001   9.92075203E-001
   2.20000000E+002   9.92639300E-001   1.74974560E-001   9.92639301E-001
   2.25000000E+002   9.93299159E-001   1.74974561E-001   9.93299159E-001
   2.30000000E+002   9.93914546E-001   1.74974561E-001   9.93914547E-001
   2.35000000E+002   9.94476579E-001   1.74974561E-001   9.94476580E-001
   2.40000000E+002   9.94777034E-001   1.74974561E-001   9.94777034E-001
   2.45000000E+002   9.95317372E-001   1.74974562E-001   9.95317372E-001
