# ./jetvheto -in n3lo-fixed-order/H125-LHC13-R04-mb-0-mt-1725-xmur100-xmuf100-log.fxd -xQ 0.5 -out benchmarks-n3lo-smallR/H125-LHC13-R04-mb-0-mt-1725-xmur100-xmuf100-xQ050-N3LO+NNLLa.R0-2.0.res -scheme a -order 2 -ptmax 500.01 -small-r -fixed_order 3 -loop-mass t -R0 2.0
# process = H    
# collider = pp   
# rts =  13000.000
# M   =    125.000
# muR =    125.000
# muF =    125.000
# Q   =     62.500
# p   =      5.000
# include_c1_squared =   F
# loop_mass  = t   
# alphas(MZ) =    0.11800
# alphas(M) =    0.11264
# alphas(muR) =    0.11264
# Rjet =      0.400
# order = NNLL
# pdf name and set = PDF4LHC15_nnlo_mc.LHgrid,    0
# matching scheme = a
# total cross sections [nb] at LO, NLOdiff, NNLOdiff, N3LOdiff =     0.013801    0.017514    0.010146    0.003834
#----------------------------------------------------------------------
# the lines that follow give the jet-veto efficiencies as a function of pt
#         pt            matched eff      resummed eff     fixed-order eff
   2.00000000E+001   4.77038062E-001   5.33568009E-001   4.70549319E-001
   2.50000000E+001   5.61372570E-001   6.14027396E-001   5.55098689E-001
   3.00000000E+001   6.31455542E-001   6.70849634E-001   6.25631507E-001
   3.50000000E+001   6.86042136E-001   7.10496251E-001   6.80214785E-001
   4.00000000E+001   7.29935256E-001   7.37632918E-001   7.24327023E-001
   4.50000000E+001   7.65251339E-001   7.55719478E-001   7.60109480E-001
   5.00000000E+001   7.94899627E-001   7.67391299E-001   7.90410150E-001
   5.50000000E+001   8.20035444E-001   7.74670273E-001   8.16264683E-001
   6.00000000E+001   8.41115553E-001   7.79073182E-001   8.38035676E-001
   6.50000000E+001   8.59888190E-001   7.81678817E-001   8.57426760E-001
   7.00000000E+001   8.75687155E-001   7.83204922E-001   8.73744963E-001
   7.50000000E+001   8.88864877E-001   7.84100315E-001   8.87342330E-001
   8.00000000E+001   9.00471496E-001   7.84632248E-001   8.99280183E-001
   8.50000000E+001   9.10979542E-001   7.84954747E-001   9.10046058E-001
   9.00000000E+001   9.19952005E-001   7.85155357E-001   9.19217312E-001
   9.50000000E+001   9.28185177E-001   7.85283740E-001   9.27603719E-001
   1.00000000E+002   9.35087620E-001   7.85368326E-001   9.34624471E-001
   1.05000000E+002   9.41289161E-001   7.85425657E-001   9.40917661E-001
   1.10000000E+002   9.46869220E-001   7.85465565E-001   9.46569141E-001
   1.15000000E+002   9.51892121E-001   7.85494035E-001   9.51647991E-001
   1.20000000E+002   9.56259755E-001   7.85514800E-001   9.56059806E-001
   1.25000000E+002   9.60048169E-001   7.85530247E-001   9.59883314E-001
   1.30000000E+002   9.63848498E-001   7.85541943E-001   9.63711695E-001
   1.35000000E+002   9.67168933E-001   7.85550939E-001   9.67054718E-001
   1.40000000E+002   9.69973168E-001   7.85557954E-001   9.69877285E-001
   1.45000000E+002   9.72652061E-001   7.85563493E-001   9.72571106E-001
   1.50000000E+002   9.74921423E-001   7.85567915E-001   9.74852733E-001
   1.55000000E+002   9.77369022E-001   7.85571481E-001   9.77310440E-001
   1.60000000E+002   9.79034502E-001   7.85574381E-001   9.78984317E-001
   1.65000000E+002   9.80818811E-001   7.85576760E-001   9.80775628E-001
   1.70000000E+002   9.82379628E-001   7.85578725E-001   9.82342311E-001
   1.75000000E+002   9.83895125E-001   7.85580360E-001   9.83862750E-001
   1.80000000E+002   9.85286481E-001   7.85581728E-001   9.85258287E-001
   1.85000000E+002   9.86536355E-001   7.85582880E-001   9.86511714E-001
   1.90000000E+002   9.87412932E-001   7.85583855E-001   9.87391325E-001
   1.95000000E+002   9.88537175E-001   7.85584683E-001   9.88518162E-001
   2.00000000E+002   9.89491137E-001   7.85585392E-001   9.89474357E-001
   2.05000000E+002   9.90311993E-001   7.85585999E-001   9.90297139E-001
   2.10000000E+002   9.91046412E-001   7.85586523E-001   9.91033226E-001
   2.15000000E+002   9.91861103E-001   7.85586976E-001   9.91849366E-001
   2.20000000E+002   9.92451242E-001   7.85587369E-001   9.92440768E-001
   2.25000000E+002   9.93073046E-001   7.85587711E-001   9.93063675E-001
   2.30000000E+002   9.93652685E-001   7.85588010E-001   9.93644282E-001
   2.35000000E+002   9.94189062E-001   7.85588273E-001   9.94181508E-001
   2.40000000E+002   9.94552866E-001   7.85588503E-001   9.94546063E-001
   2.45000000E+002   9.95040667E-001   7.85588706E-001   9.95034525E-001
