# ./jetvheto -in n3lo-fixed-order/H125-LHC13-R04-mb-0-mt-1725-xmur100-xmuf050-log.fxd -xQ 0.5 -out benchmarks-n3lo-smallR/H125-LHC13-R04-mb-0-mt-1725-xmur100-xmuf050-xQ050-N3LO+NNLLb.R0-0.5.res -scheme b -order 2 -ptmax 500.01 -small-r -fixed_order 3 -loop-mass t -R0 0.5
# process = H    
# collider = pp   
# rts =  13000.000
# M   =    125.000
# muR =    125.000
# muF =     62.500
# Q   =     62.500
# p   =      5.000
# include_c1_squared =   F
# loop_mass  = t   
# alphas(MZ) =    0.11800
# alphas(M) =    0.11264
# alphas(muR) =    0.11264
# Rjet =      0.400
# order = NNLL
# pdf name and set = PDF4LHC15_nnlo_mc.LHgrid,    0
# matching scheme = b
# total cross sections [nb] at LO, NLOdiff, NNLOdiff, N3LOdiff =     0.012997    0.017347    0.010424    0.004163
#----------------------------------------------------------------------
# the lines that follow give the jet-veto efficiencies as a function of pt
#         pt            matched eff      resummed eff     fixed-order eff
   2.00000000E+001   4.37496361E-001   5.05160942E-001   4.15356219E-001
   2.50000000E+001   5.24637694E-001   5.90826688E-001   5.08719955E-001
   3.00000000E+001   5.96863355E-001   6.52373188E-001   5.85226468E-001
   3.50000000E+001   6.55033049E-001   6.96049941E-001   6.45994416E-001
   4.00000000E+001   7.01231417E-001   7.26525276E-001   6.93925358E-001
   4.50000000E+001   7.40704224E-001   7.47298512E-001   7.34878042E-001
   5.00000000E+001   7.73112231E-001   7.61076387E-001   7.68458672E-001
   5.50000000E+001   8.00655109E-001   7.69970864E-001   7.96994090E-001
   6.00000000E+001   8.23748433E-001   7.75590020E-001   8.20887675E-001
   6.50000000E+001   8.44605877E-001   7.79095207E-001   8.42394793E-001
   7.00000000E+001   8.61450266E-001   7.81278666E-001   8.59739714E-001
   7.50000000E+001   8.76360209E-001   7.82651543E-001   8.75039666E-001
   8.00000000E+001   8.89721502E-001   7.83530028E-001   8.88699874E-001
   8.50000000E+001   9.01581814E-001   7.84104871E-001   9.00787747E-001
   9.00000000E+001   9.12066111E-001   7.84490478E-001   9.11445028E-001
   9.50000000E+001   9.20772470E-001   7.84755650E-001   9.20282864E-001
   1.00000000E+002   9.28908753E-001   7.84942340E-001   9.28520035E-001
   1.05000000E+002   9.35629217E-001   7.85076647E-001   9.35318080E-001
   1.10000000E+002   9.41748123E-001   7.85175170E-001   9.41497221E-001
   1.15000000E+002   9.47429573E-001   7.85248715E-001   9.47225803E-001
   1.20000000E+002   9.52552950E-001   7.85304475E-001   9.52386268E-001
   1.25000000E+002   9.56975043E-001   7.85347341E-001   9.56837706E-001
   1.30000000E+002   9.60832597E-001   7.85380708E-001   9.60718713E-001
   1.35000000E+002   9.64522090E-001   7.85406972E-001   9.64427093E-001
   1.40000000E+002   9.67890485E-001   7.85427855E-001   9.67810777E-001
   1.45000000E+002   9.70876897E-001   7.85444614E-001   9.70809639E-001
   1.50000000E+002   9.73370491E-001   7.85458176E-001   9.73313419E-001
   1.55000000E+002   9.75944190E-001   7.85469236E-001   9.75895546E-001
   1.60000000E+002   9.78264454E-001   7.85478320E-001   9.78222797E-001
   1.65000000E+002   9.79952565E-001   7.85485831E-001   9.79916714E-001
   1.70000000E+002   9.81829838E-001   7.85492078E-001   9.81798867E-001
   1.75000000E+002   9.83549703E-001   7.85497305E-001   9.83522840E-001
   1.80000000E+002   9.84961533E-001   7.85501701E-001   9.84938142E-001
   1.85000000E+002   9.86264122E-001   7.85505417E-001   9.86243680E-001
   1.90000000E+002   9.87536017E-001   7.85508573E-001   9.87518092E-001
   1.95000000E+002   9.88706415E-001   7.85511265E-001   9.88690647E-001
   2.00000000E+002   9.89756691E-001   7.85513571E-001   9.89742777E-001
   2.05000000E+002   9.90640392E-001   7.85515555E-001   9.90628076E-001
   2.10000000E+002   9.91486218E-001   7.85517267E-001   9.91475286E-001
   2.15000000E+002   9.92203611E-001   7.85518751E-001   9.92193880E-001
   2.20000000E+002   9.93052954E-001   7.85520040E-001   9.93044272E-001
   2.25000000E+002   9.93610559E-001   7.85521165E-001   9.93602792E-001
   2.30000000E+002   9.94225230E-001   7.85522149E-001   9.94218265E-001
   2.35000000E+002   9.94710644E-001   7.85523012E-001   9.94704384E-001
   2.40000000E+002   9.95206201E-001   7.85523772E-001   9.95200562E-001
   2.45000000E+002   9.95729397E-001   7.85524442E-001   9.95724307E-001
