# ./jetvheto -in n3lo-fixed-order/H125-LHC13-R04-mb-0-mt-1725-xmur050-xmuf050-log.fxd -xQ 1.0 -out benchmarks-n3lo-smallR/H125-LHC13-R04-mb-0-mt-1725-xmur050-xmuf050-xQ100-NNLO+NNLLb.R0-2.0.res -scheme b -order 2 -ptmax 500.01 -small-r -fixed_order 2 -loop-mass t -R0 2.0
# process = H    
# collider = pp   
# rts =  13000.000
# M   =    125.000
# muR =     62.500
# muF =     62.500
# Q   =    125.000
# p   =      5.000
# include_c1_squared =   F
# loop_mass  = t   
# alphas(MZ) =    0.11800
# alphas(M) =    0.11264
# alphas(muR) =    0.12516
# Rjet =      0.400
# order = NNLL
# pdf name and set = PDF4LHC15_nnlo_mc.LHgrid,    0
# matching scheme = b
# total cross sections [nb] at LO, NLOdiff, NNLOdiff, N3LOdiff =     0.015885    0.020561    0.008998    0.001413
#----------------------------------------------------------------------
# the lines that follow give the jet-veto efficiencies as a function of pt
#         pt            matched eff      resummed eff     fixed-order eff
   2.00000000E+001   5.41733374E-001   6.73953193E-001   3.37968833E-001
   2.50000000E+001   6.12839278E-001   7.42257172E-001   4.45490403E-001
   3.00000000E+001   6.69282009E-001   7.88142553E-001   5.29094091E-001
   3.50000000E+001   7.15039959E-001   8.18416805E-001   5.95850260E-001
   4.00000000E+001   7.52542457E-001   8.37689663E-001   6.50115846E-001
   4.50000000E+001   7.83643379E-001   8.49055661E-001   6.94939270E-001
   5.00000000E+001   8.10059114E-001   8.54669196E-001   7.32769177E-001
   5.50000000E+001   8.31905871E-001   8.56079771E-001   7.64361916E-001
   6.00000000E+001   8.50657205E-001   8.54415822E-001   7.91465371E-001
   6.50000000E+001   8.66790822E-001   8.50524841E-001   8.14838120E-001
   7.00000000E+001   8.80710614E-001   8.45059083E-001   8.35078651E-001
   7.50000000E+001   8.92634337E-001   8.38522050E-001   8.52570605E-001
   8.00000000E+001   9.03097162E-001   8.31312252E-001   8.67937405E-001
   8.50000000E+001   9.12303662E-001   8.23751007E-001   8.81478135E-001
   9.00000000E+001   9.20399784E-001   8.16097569E-001   8.93411828E-001
   9.50000000E+001   9.27448916E-001   8.08558190E-001   9.03868009E-001
   1.00000000E+002   9.33842522E-001   8.01294832E-001   9.13265993E-001
   1.05000000E+002   9.39407534E-001   7.94428170E-001   9.21489390E-001
   1.10000000E+002   9.44430638E-001   7.88041717E-001   9.28847842E-001
   1.15000000E+002   9.48987955E-001   7.82186570E-001   9.35451292E-001
   1.20000000E+002   9.53143642E-001   7.76884479E-001   9.41393487E-001
   1.25000000E+002   9.56986424E-001   7.72134146E-001   9.46790455E-001
   1.30000000E+002   9.60399923E-001   7.67916664E-001   9.51556334E-001
   1.35000000E+002   9.63535580E-001   7.64200478E-001   9.55862035E-001
   1.40000000E+002   9.66451579E-001   7.60946032E-001   9.59788706E-001
   1.45000000E+002   9.69147643E-001   7.58109658E-001   9.63356960E-001
   1.50000000E+002   9.71663402E-001   7.55646610E-001   9.66623739E-001
   1.55000000E+002   9.73951709E-001   7.53513261E-001   9.69559478E-001
   1.60000000E+002   9.76062700E-001   7.51668547E-001   9.72228153E-001
   1.65000000E+002   9.77992894E-001   7.50074775E-001   9.74639208E-001
   1.70000000E+002   9.79796355E-001   7.48698115E-001   9.76857081E-001
   1.75000000E+002   9.81451213E-001   7.47508632E-001   9.78869658E-001
   1.80000000E+002   9.82954466E-001   7.46480082E-001   9.80682463E-001
   1.85000000E+002   9.84365888E-001   7.45589681E-001   9.82361728E-001
   1.90000000E+002   9.85668722E-001   7.44817779E-001   9.83896830E-001
   1.95000000E+002   9.86866955E-001   7.44147508E-001   9.85296972E-001
   2.00000000E+002   9.87972542E-001   7.43564432E-001   9.86578358E-001
   2.05000000E+002   9.88993515E-001   7.43056223E-001   9.87752669E-001
   2.10000000E+002   9.89911119E-001   7.42612371E-001   9.88804449E-001
   2.15000000E+002   9.90789159E-001   7.42223917E-001   9.89799927E-001
   2.20000000E+002   9.91595547E-001   7.41883225E-001   9.90709441E-001
   2.25000000E+002   9.92312303E-001   7.41583781E-001   9.91517046E-001
   2.30000000E+002   9.93025820E-001   7.41320027E-001   9.92310501E-001
   2.35000000E+002   9.93637445E-001   7.41087216E-001   9.92992886E-001
   2.40000000E+002   9.94220138E-001   7.40881282E-001   9.93638203E-001
   2.45000000E+002   9.94754737E-001   7.40698742E-001   9.94228366E-001
