# ./jetvheto -in n3lo-fixed-order/H125-LHC13-R04-mb-0-mt-1725-xmur100-xmuf050-log.fxd -xQ 0.25 -out benchmarks-n3lo-smallR/H125-LHC13-R04-mb-0-mt-1725-xmur100-xmuf050-xQ025-N3LO+NNLLa.R0-0.5.res -scheme a -order 2 -ptmax 500.01 -small-r -fixed_order 3 -loop-mass t -R0 0.5
# process = H    
# collider = pp   
# rts =  13000.000
# M   =    125.000
# muR =    125.000
# muF =     62.500
# Q   =     31.250
# p   =      5.000
# include_c1_squared =   F
# loop_mass  = t   
# alphas(MZ) =    0.11800
# alphas(M) =    0.11264
# alphas(muR) =    0.11264
# Rjet =      0.400
# order = NNLL
# pdf name and set = PDF4LHC15_nnlo_mc.LHgrid,    0
# matching scheme = a
# total cross sections [nb] at LO, NLOdiff, NNLOdiff, N3LOdiff =     0.012997    0.017347    0.010424    0.004163
#----------------------------------------------------------------------
# the lines that follow give the jet-veto efficiencies as a function of pt
#         pt            matched eff      resummed eff     fixed-order eff
   2.00000000E+001   4.62882497E-001   5.31825530E-001   4.69526017E-001
   2.50000000E+001   5.49749752E-001   6.06812270E-001   5.54239195E-001
   3.00000000E+001   6.20676145E-001   6.51242754E-001   6.23657046E-001
   3.50000000E+001   6.76938008E-001   6.75548795E-001   6.78794579E-001
   4.00000000E+001   7.21157361E-001   6.88357971E-001   7.22284509E-001
   4.50000000E+001   7.58723482E-001   6.95139876E-001   7.59442749E-001
   5.00000000E+001   7.89447697E-001   6.98837946E-001   7.89911987E-001
   5.50000000E+001   8.15492768E-001   7.00934521E-001   8.15803473E-001
   6.00000000E+001   8.37271504E-001   7.02171778E-001   8.37483214E-001
   6.50000000E+001   8.56847979E-001   7.02929986E-001   8.56997603E-001
   7.00000000E+001   8.72629197E-001   7.03410782E-001   8.72735442E-001
   7.50000000E+001   8.86540492E-001   7.03725114E-001   8.86617786E-001
   8.00000000E+001   8.98954903E-001   7.03936270E-001   8.99012317E-001
   8.50000000E+001   9.09936845E-001   7.04081581E-001   9.09980195E-001
   9.00000000E+001   9.19616832E-001   7.04183757E-001   9.19650032E-001
   9.50000000E+001   9.27643401E-001   7.04257000E-001   9.27669005E-001
   1.00000000E+002   9.35122905E-001   7.04310422E-001   9.35142966E-001
   1.05000000E+002   9.41295327E-001   7.04350001E-001   9.41311142E-001
   1.10000000E+002   9.46905145E-001   7.04379744E-001   9.46917758E-001
   1.15000000E+002   9.52105386E-001   7.04402387E-001   9.52115563E-001
   1.20000000E+002   9.56789607E-001   7.04419829E-001   9.56797888E-001
   1.25000000E+002   9.60830105E-001   7.04433411E-001   9.60836881E-001
   1.30000000E+002   9.64352713E-001   7.04444095E-001   9.64358296E-001
   1.35000000E+002   9.67718436E-001   7.04452575E-001   9.67723078E-001
   1.40000000E+002   9.70789364E-001   7.04459366E-001   9.70793249E-001
   1.45000000E+002   9.73510985E-001   7.04464846E-001   9.73514254E-001
   1.50000000E+002   9.75783289E-001   7.04469301E-001   9.75786047E-001
   1.55000000E+002   9.78126580E-001   7.04472948E-001   9.78128929E-001
   1.60000000E+002   9.80238541E-001   7.04475954E-001   9.80240550E-001
   1.65000000E+002   9.81775799E-001   7.04478445E-001   9.81777518E-001
   1.70000000E+002   9.83483798E-001   7.04480522E-001   9.83485281E-001
   1.75000000E+002   9.85048236E-001   7.04482262E-001   9.85049521E-001
   1.80000000E+002   9.86332573E-001   7.04483729E-001   9.86333689E-001
   1.85000000E+002   9.87517290E-001   7.04484970E-001   9.87518263E-001
   1.90000000E+002   9.88673743E-001   7.04486025E-001   9.88674596E-001
   1.95000000E+002   9.89737759E-001   7.04486927E-001   9.89738508E-001
   2.00000000E+002   9.90692493E-001   7.04487699E-001   9.90693154E-001
   2.05000000E+002   9.91495842E-001   7.04488364E-001   9.91496426E-001
   2.10000000E+002   9.92264621E-001   7.04488938E-001   9.92265138E-001
   2.15000000E+002   9.92916692E-001   7.04489436E-001   9.92917151E-001
   2.20000000E+002   9.93688341E-001   7.04489869E-001   9.93688751E-001
   2.25000000E+002   9.94195155E-001   7.04490247E-001   9.94195521E-001
   2.30000000E+002   9.94753640E-001   7.04490578E-001   9.94753968E-001
   2.35000000E+002   9.95194751E-001   7.04490868E-001   9.95195046E-001
   2.40000000E+002   9.95644986E-001   7.04491124E-001   9.95645251E-001
   2.45000000E+002   9.96120230E-001   7.04491349E-001   9.96120469E-001
