# ./jetvheto -in n3lo-fixed-order/H125-LHC13-R04-mb-475-mt-1725-xmur050-xmuf050-log.fxd -xQ 0.25 -out benchmarks-n3lo-smallR/H125-LHC13-R04-mb-475-mt-1725-xmur050-xmuf050-xQ025-NNLO+NNLLa.res -scheme a -order 2 -ptmax 500.01 -fixed_order 2 -loop-mass t+b
# process = H    
# collider = pp   
# rts =  13000.000
# M   =    125.000
# muR =     62.500
# muF =     62.500
# Q   =     31.250
# p   =      5.000
# include_c1_squared =   F
# loop_mass  = t+b 
# alphas(MZ) =    0.11800
# alphas(M) =    0.11264
# alphas(muR) =    0.12516
# Rjet =      0.400
# order = NNLL
# pdf name and set = PDF4LHC15_nnlo_mc.LHgrid,    0
# matching scheme = a
# total cross sections [nb] at LO, NLOdiff, NNLOdiff, N3LOdiff =     0.014147    0.020254    0.008998    0.001413
#----------------------------------------------------------------------
# the lines that follow give the jet-veto efficiencies as a function of pt
#         pt            matched eff      resummed eff     fixed-order eff
   2.00000000E+001   4.45528984E-001   4.70688378E-001   4.51585809E-001
   2.50000000E+001   5.32970780E-001   5.37428246E-001   5.37845647E-001
   3.00000000E+001   6.02304542E-001   5.76940207E-001   6.05618957E-001
   3.50000000E+001   6.57964317E-001   5.98542631E-001   6.60103954E-001
   4.00000000E+001   7.03244614E-001   6.09922716E-001   7.04623301E-001
   4.50000000E+001   7.40924416E-001   6.15946657E-001   7.41826274E-001
   5.00000000E+001   7.72550501E-001   6.19231012E-001   7.73153273E-001
   5.50000000E+001   7.99288764E-001   6.21092906E-001   7.99700298E-001
   6.00000000E+001   8.22166746E-001   6.22191623E-001   8.22453602E-001
   6.50000000E+001   8.41859552E-001   6.22864916E-001   8.42063586E-001
   7.00000000E+001   8.59029446E-001   6.23291858E-001   8.59177351E-001
   7.50000000E+001   8.73877117E-001   6.23570979E-001   8.73986041E-001
   8.00000000E+001   8.86949784E-001   6.23758481E-001   8.87031290E-001
   8.50000000E+001   8.98499834E-001   6.23887513E-001   8.98561694E-001
   9.00000000E+001   9.08628683E-001   6.23978242E-001   9.08676257E-001
   9.50000000E+001   9.17550052E-001   6.24043279E-001   9.17587048E-001
   1.00000000E+002   9.25530552E-001   6.24090716E-001   9.25559652E-001
   1.05000000E+002   9.32618798E-001   6.24125861E-001   9.32641906E-001
   1.10000000E+002   9.38920839E-001   6.24152272E-001   9.38939368E-001
   1.15000000E+002   9.44596627E-001   6.24172377E-001   9.44611611E-001
   1.20000000E+002   9.49673752E-001   6.24187865E-001   9.49685968E-001
   1.25000000E+002   9.54286674E-001   6.24199926E-001   9.54296709E-001
   1.30000000E+002   9.58387024E-001   6.24209413E-001   9.58395322E-001
   1.35000000E+002   9.62098093E-001   6.24216943E-001   9.62105002E-001
   1.40000000E+002   9.65476596E-001   6.24222973E-001   9.65482383E-001
   1.45000000E+002   9.68519534E-001   6.24227839E-001   9.68524408E-001
   1.50000000E+002   9.71306254E-001   6.24231795E-001   9.71310382E-001
   1.55000000E+002   9.73828207E-001   6.24235034E-001   9.73831721E-001
   1.60000000E+002   9.76115988E-001   6.24237702E-001   9.76118993E-001
   1.65000000E+002   9.78183310E-001   6.24239914E-001   9.78185892E-001
   1.70000000E+002   9.80067824E-001   6.24241758E-001   9.80070053E-001
   1.75000000E+002   9.81812981E-001   6.24243304E-001   9.81814911E-001
   1.80000000E+002   9.83373126E-001   6.24244606E-001   9.83374805E-001
   1.85000000E+002   9.84823045E-001   6.24245708E-001   9.84824510E-001
   1.90000000E+002   9.86143851E-001   6.24246645E-001   9.86145135E-001
   1.95000000E+002   9.87346223E-001   6.24247446E-001   9.87347351E-001
   2.00000000E+002   9.88442569E-001   6.24248132E-001   9.88443563E-001
   2.05000000E+002   9.89454519E-001   6.24248722E-001   9.89455399E-001
   2.10000000E+002   9.90357937E-001   6.24249232E-001   9.90358717E-001
   2.15000000E+002   9.91216258E-001   6.24249674E-001   9.91216951E-001
   2.20000000E+002   9.92003865E-001   6.24250059E-001   9.92004483E-001
   2.25000000E+002   9.92696385E-001   6.24250394E-001   9.92696938E-001
   2.30000000E+002   9.93373139E-001   6.24250688E-001   9.93373635E-001
   2.35000000E+002   9.93963238E-001   6.24250946E-001   9.93963683E-001
   2.40000000E+002   9.94516418E-001   6.24251172E-001   9.94516819E-001
   2.45000000E+002   9.95015281E-001   6.24251373E-001   9.95015643E-001
