# ./jetvheto -in n3lo-fixed-order/H125-LHC13-R04-heft-xmur100-xmuf100-log.fxd -xQ 0.75 -out benchmarks-n3lo-smallR/H125-LHC13-R04-heft-xmur100-xmuf100-xQ075-NNLO+NNLLa.R0-2.0.res -scheme a -order 2 -ptmax 500.01 -fixed_order 2 -small-r -R0 2.0
# process = H    
# collider = pp   
# rts =  13000.000
# M   =    125.000
# muR =    125.000
# muF =    125.000
# Q   =     93.750
# p   =      5.000
# include_c1_squared =   F
# loop_mass  = none
# alphas(MZ) =    0.11800
# alphas(M) =    0.11264
# alphas(muR) =    0.11264
# Rjet =      0.400
# order = NNLL
# pdf name and set = PDF4LHC15_nnlo_mc.LHgrid,    0
# matching scheme = a
# total cross sections [nb] at LO, NLOdiff, NNLOdiff, N3LOdiff =     0.012945    0.016716    0.010146    0.003834
#----------------------------------------------------------------------
# the lines that follow give the jet-veto efficiencies as a function of pt
#         pt            matched eff      resummed eff     fixed-order eff
   2.00000000E+001   5.23134633E-001   5.64839100E-001   5.03121755E-001
   2.50000000E+001   6.10346773E-001   6.45754205E-001   5.84489186E-001
   3.00000000E+001   6.77909734E-001   7.02680887E-001   6.47024325E-001
   3.50000000E+001   7.30706493E-001   7.42422599E-001   6.96432698E-001
   4.00000000E+001   7.72528340E-001   7.69731575E-001   7.36537087E-001
   4.50000000E+001   8.05762609E-001   7.87960837E-001   7.69498888E-001
   5.00000000E+001   8.32428159E-001   7.99505483E-001   7.97057559E-001
   5.50000000E+001   8.53884705E-001   8.06136246E-001   8.20296043E-001
   6.00000000E+001   8.71361556E-001   8.09195536E-001   8.40179538E-001
   6.50000000E+001   8.85695485E-001   8.09725897E-001   8.57311575E-001
   7.00000000E+001   8.97459208E-001   8.08545464E-001   8.72069843E-001
   7.50000000E+001   9.07324771E-001   8.06293151E-001   8.84956099E-001
   8.00000000E+001   9.15686840E-001   8.03460015E-001   8.96237121E-001
   8.50000000E+001   9.22826671E-001   8.00408395E-001   9.06102675E-001
   9.00000000E+001   9.29135585E-001   7.97390154E-001   9.14880120E-001
   9.50000000E+001   9.34672947E-001   7.94564241E-001   9.22604114E-001
   1.00000000E+002   9.39643024E-001   7.92017206E-001   9.29473021E-001
   1.05000000E+002   9.44148889E-001   7.89783153E-001   9.35603161E-001
   1.10000000E+002   9.48224819E-001   7.87861487E-001   9.41053390E-001
   1.15000000E+002   9.51995005E-001   7.86231173E-001   9.45975962E-001
   1.20000000E+002   9.55438200E-001   7.84860907E-001   9.50380922E-001
   1.25000000E+002   9.58611610E-001   7.83716091E-001   9.54354081E-001
   1.30000000E+002   9.61527279E-001   7.82762896E-001   9.57933958E-001
   1.35000000E+002   9.64237789E-001   7.81970403E-001   9.61195880E-001
   1.40000000E+002   9.66693559E-001   7.81311508E-001   9.64110237E-001
   1.45000000E+002   9.69012721E-001   7.80763078E-001   9.66811003E-001
   1.50000000E+002   9.71099619E-001   7.80305718E-001   9.69216654E-001
   1.55000000E+002   9.73041417E-001   7.79923356E-001   9.71425199E-001
   1.60000000E+002   9.74851382E-001   7.79602768E-001   9.73459094E-001
   1.65000000E+002   9.76505454E-001   7.79333125E-001   9.75301855E-001
   1.70000000E+002   9.78054738E-001   7.79105576E-001   9.77010596E-001
   1.75000000E+002   9.79463187E-001   7.78912891E-001   9.78554343E-001
   1.80000000E+002   9.80784411E-001   7.78749165E-001   9.79990696E-001
   1.85000000E+002   9.81991792E-001   7.78609562E-001   9.81296426E-001
   1.90000000E+002   9.83115021E-001   7.78490122E-001   9.82503927E-001
   1.95000000E+002   9.84176943E-001   7.78387588E-001   9.83638287E-001
   2.00000000E+002   9.85151366E-001   7.78299277E-001   9.84675207E-001
   2.05000000E+002   9.86061170E-001   7.78222970E-001   9.85639085E-001
   2.10000000E+002   9.86898162E-001   7.78156830E-001   9.86523019E-001
   2.15000000E+002   9.87665252E-001   7.78099327E-001   9.87330981E-001
   2.20000000E+002   9.88390816E-001   7.78049188E-001   9.88092219E-001
   2.25000000E+002   9.89062345E-001   7.78005343E-001   9.88794983E-001
   2.30000000E+002   9.89691005E-001   7.77966898E-001   9.89451061E-001
   2.35000000E+002   9.90291624E-001   7.77933098E-001   9.90075806E-001
   2.40000000E+002   9.90835379E-001   7.77903304E-001   9.90640855E-001
   2.45000000E+002   9.91350648E-001   7.77876977E-001   9.91174955E-001
