# ./jetvheto -in n3lo-fixed-order/H125-LHC13-R04-mb-475-mt-1725-xmur100-xmuf200-log.fxd -xQ 0.25 -out benchmarks-n3lo-smallR/H125-LHC13-R04-mb-475-mt-1725-xmur100-xmuf200-xQ025-NNLO+NNLLa.R0-1.5.res -scheme a -order 2 -ptmax 500.01 -fixed_order 2 -small-r -loop-mass t+b -R0 1.5
# process = H    
# collider = pp   
# rts =  13000.000
# M   =    125.000
# muR =    125.000
# muF =    250.000
# Q   =     31.250
# p   =      5.000
# include_c1_squared =   F
# loop_mass  = t+b 
# alphas(MZ) =    0.11800
# alphas(M) =    0.11264
# alphas(muR) =    0.11264
# Rjet =      0.400
# order = NNLL
# pdf name and set = PDF4LHC15_nnlo_mc.LHgrid,    0
# matching scheme = a
# total cross sections [nb] at LO, NLOdiff, NNLOdiff, N3LOdiff =     0.012791    0.017144    0.009991    0.003297
#----------------------------------------------------------------------
# the lines that follow give the jet-veto efficiencies as a function of pt
#         pt            matched eff      resummed eff     fixed-order eff
   2.00000000E+001   4.86088671E-001   5.33532961E-001   4.96990142E-001
   2.50000000E+001   5.71962271E-001   6.02183832E-001   5.79781046E-001
   3.00000000E+001   6.38234844E-001   6.42289772E-001   6.43205554E-001
   3.50000000E+001   6.90506633E-001   6.64012646E-001   6.93573535E-001
   4.00000000E+001   7.32480243E-001   6.75388908E-001   7.34390203E-001
   4.50000000E+001   7.66890857E-001   6.81390258E-001   7.68110951E-001
   5.00000000E+001   7.95458053E-001   6.84655833E-001   7.96256890E-001
   5.50000000E+001   8.19514892E-001   6.86504976E-001   8.20052497E-001
   6.00000000E+001   8.39875833E-001   6.87595447E-001   8.40246247E-001
   6.50000000E+001   8.57391859E-001   6.88263417E-001   8.57652920E-001
   7.00000000E+001   8.72580766E-001   6.88686878E-001   8.72768673E-001
   7.50000000E+001   8.85740659E-001   6.88963678E-001   8.85878372E-001
   8.00000000E+001   8.97307728E-001   6.89149600E-001   8.97410399E-001
   8.50000000E+001   9.07396770E-001   6.89277536E-001   9.07474445E-001
   9.00000000E+001   9.16321255E-001   6.89367490E-001   9.16380866E-001
   9.50000000E+001   9.24191347E-001   6.89431969E-001   9.24237657E-001
   1.00000000E+002   9.31127261E-001   6.89478998E-001   9.31163638E-001
   1.05000000E+002   9.37385644E-001   6.89513839E-001   9.37414533E-001
   1.10000000E+002   9.42953894E-001   6.89540022E-001   9.42977060E-001
   1.15000000E+002   9.47942981E-001   6.89559954E-001   9.47961719E-001
   1.20000000E+002   9.52414028E-001   6.89575308E-001   9.52429312E-001
   1.25000000E+002   9.56418748E-001   6.89587264E-001   9.56431308E-001
   1.30000000E+002   9.60029948E-001   6.89596668E-001   9.60040343E-001
   1.35000000E+002   9.63326244E-001   6.89604133E-001   9.63334907E-001
   1.40000000E+002   9.66292831E-001   6.89610111E-001   9.66300093E-001
   1.45000000E+002   9.68978539E-001   6.89614934E-001   9.68984662E-001
   1.50000000E+002   9.71427641E-001   6.89618856E-001   9.71432833E-001
   1.55000000E+002   9.73646334E-001   6.89622067E-001   9.73650757E-001
   1.60000000E+002   9.75693365E-001   6.89624712E-001   9.75697154E-001
   1.65000000E+002   9.77556655E-001   6.89626905E-001   9.77559914E-001
   1.70000000E+002   9.79251868E-001   6.89628733E-001   9.79254684E-001
   1.75000000E+002   9.80775628E-001   6.89630265E-001   9.80778070E-001
   1.80000000E+002   9.82200108E-001   6.89631556E-001   9.82202234E-001
   1.85000000E+002   9.83509663E-001   6.89632649E-001   9.83511521E-001
   1.90000000E+002   9.84691731E-001   6.89633578E-001   9.84693360E-001
   1.95000000E+002   9.85786560E-001   6.89634371E-001   9.85787993E-001
   2.00000000E+002   9.86783926E-001   6.89635051E-001   9.86785191E-001
   2.05000000E+002   9.87711110E-001   6.89635636E-001   9.87712229E-001
   2.10000000E+002   9.88568758E-001   6.89636142E-001   9.88569752E-001
   2.15000000E+002   9.89359509E-001   6.89636580E-001   9.89360394E-001
   2.20000000E+002   9.90084524E-001   6.89636961E-001   9.90085314E-001
   2.25000000E+002   9.90750018E-001   6.89637294E-001   9.90750725E-001
   2.30000000E+002   9.91376469E-001   6.89637585E-001   9.91377103E-001
   2.35000000E+002   9.91960183E-001   6.89637841E-001   9.91960753E-001
   2.40000000E+002   9.92474692E-001   6.89638065E-001   9.92475205E-001
   2.45000000E+002   9.92970544E-001   6.89638264E-001   9.92971008E-001
