# ./jetvheto -in n3lo-fixed-order/H125-LHC13-R04-mb-0-mt-1725-xmur200-xmuf100-log.fxd -xQ 0.5 -out benchmarks-n3lo-smallR/H125-LHC13-R04-mb-0-mt-1725-xmur200-xmuf100-xQ050-N3LO+NNLLb.R0-0.5.res -scheme b -order 2 -ptmax 500.01 -small-r -fixed_order 3 -loop-mass t -R0 0.5
# process = H    
# collider = pp   
# rts =  13000.000
# M   =    125.000
# muR =    250.000
# muF =    125.000
# Q   =     62.500
# p   =      5.000
# include_c1_squared =   F
# loop_mass  = t   
# alphas(MZ) =    0.11800
# alphas(M) =    0.11264
# alphas(muR) =    0.10244
# Rjet =      0.400
# order = NNLL
# pdf name and set = PDF4LHC15_nnlo_mc.LHgrid,    0
# matching scheme = b
# total cross sections [nb] at LO, NLOdiff, NNLOdiff, N3LOdiff =     0.011501    0.015066    0.010526    0.005600
#----------------------------------------------------------------------
# the lines that follow give the jet-veto efficiencies as a function of pt
#         pt            matched eff      resummed eff     fixed-order eff
   2.00000000E+001   4.40641194E-001   5.32580341E-001   4.13869553E-001
   2.50000000E+001   5.26270340E-001   6.19911385E-001   5.08802619E-001
   3.00000000E+001   5.97609290E-001   6.82450334E-001   5.85793323E-001
   3.50000000E+001   6.54473159E-001   7.26694404E-001   6.45743736E-001
   4.00000000E+001   7.00939974E-001   7.57447971E-001   6.94202670E-001
   4.50000000E+001   7.38945240E-001   7.78324321E-001   7.33629119E-001
   5.00000000E+001   7.71074023E-001   7.92105231E-001   7.66872624E-001
   5.50000000E+001   7.98430311E-001   8.00947610E-001   7.95126194E-001
   6.00000000E+001   8.21608494E-001   8.06489730E-001   8.19023976E-001
   6.50000000E+001   8.42086912E-001   8.09915138E-001   8.40080780E-001
   7.00000000E+001   8.59471518E-001   8.12027109E-001   8.57918516E-001
   7.50000000E+001   8.74221628E-001   8.13340659E-001   8.73019019E-001
   8.00000000E+001   8.87200573E-001   8.14172053E-001   8.86267566E-001
   8.50000000E+001   8.98826335E-001   8.14710465E-001   8.98099833E-001
   9.00000000E+001   9.08868847E-001   8.15068159E-001   9.08299567E-001
   9.50000000E+001   9.17967964E-001   8.15312007E-001   9.17519023E-001
   1.00000000E+002   9.25753003E-001   8.15482394E-001   9.25396247E-001
   1.05000000E+002   9.32731255E-001   8.15604188E-001   9.32445635E-001
   1.10000000E+002   9.38974971E-001   8.15693056E-001   9.38744628E-001
   1.15000000E+002   9.44610249E-001   8.15759099E-001   9.44423095E-001
   1.20000000E+002   9.49553234E-001   8.15808988E-001   9.49400094E-001
   1.25000000E+002   9.53900663E-001   8.15847227E-001   9.53774485E-001
   1.30000000E+002   9.58118646E-001   8.15876919E-001   9.58014030E-001
   1.35000000E+002   9.61837561E-001   8.15900243E-001   9.61750279E-001
   1.40000000E+002   9.65053804E-001   8.15918759E-001   9.64980558E-001
   1.45000000E+002   9.68084745E-001   8.15933597E-001   9.68022931E-001
   1.50000000E+002   9.70700187E-001   8.15945592E-001   9.70647752E-001
   1.55000000E+002   9.73384323E-001   8.15955364E-001   9.73339626E-001
   1.60000000E+002   9.75402135E-001   8.15963385E-001   9.75363845E-001
   1.65000000E+002   9.77439927E-001   8.15970012E-001   9.77406984E-001
   1.70000000E+002   9.79252184E-001   8.15975521E-001   9.79223721E-001
   1.75000000E+002   9.80967756E-001   8.15980128E-001   9.80943066E-001
   1.80000000E+002   9.82547975E-001   8.15984002E-001   9.82526477E-001
   1.85000000E+002   9.83972929E-001   8.15987275E-001   9.83954143E-001
   1.90000000E+002   9.85079207E-001   8.15990054E-001   9.85062731E-001
   1.95000000E+002   9.86339897E-001   8.15992424E-001   9.86325403E-001
   2.00000000E+002   9.87433824E-001   8.15994454E-001   9.87421032E-001
   2.05000000E+002   9.88402036E-001   8.15996199E-001   9.88390712E-001
   2.10000000E+002   9.89271798E-001   8.15997706E-001   9.89261746E-001
   2.15000000E+002   9.90175995E-001   8.15999011E-001   9.90167048E-001
   2.20000000E+002   9.90891372E-001   8.16000146E-001   9.90883388E-001
   2.25000000E+002   9.91608380E-001   8.16001135E-001   9.91601237E-001
   2.30000000E+002   9.92275379E-001   8.16002000E-001   9.92268973E-001
   2.35000000E+002   9.92895050E-001   8.16002760E-001   9.92889292E-001
   2.40000000E+002   9.93362528E-001   8.16003428E-001   9.93357342E-001
   2.45000000E+002   9.93912566E-001   8.16004017E-001   9.93907885E-001
