# ./jetvheto -in n3lo-fixed-order/H125-LHC13-R04-mb-475-mt-1725-xmur200-xmuf100-log.fxd -xQ 0.25 -out benchmarks-n3lo-smallR/H125-LHC13-R04-mb-475-mt-1725-xmur200-xmuf100-xQ025-NNLO+NNLLb.R0-1.5.res -scheme b -order 2 -ptmax 500.01 -fixed_order 2 -small-r -loop-mass t+b -R0 1.5
# process = H    
# collider = pp   
# rts =  13000.000
# M   =    125.000
# muR =    250.000
# muF =    125.000
# Q   =     31.250
# p   =      5.000
# include_c1_squared =   F
# loop_mass  = t+b 
# alphas(MZ) =    0.11800
# alphas(M) =    0.11264
# alphas(muR) =    0.10244
# Rjet =      0.400
# order = NNLL
# pdf name and set = PDF4LHC15_nnlo_mc.LHgrid,    0
# matching scheme = b
# total cross sections [nb] at LO, NLOdiff, NNLOdiff, N3LOdiff =     0.010243    0.014468    0.010526    0.005600
#----------------------------------------------------------------------
# the lines that follow give the jet-veto efficiencies as a function of pt
#         pt            matched eff      resummed eff     fixed-order eff
   2.00000000E+001   3.81727142E-001   5.55229486E-001   3.28991553E-001
   2.50000000E+001   4.64113321E-001   6.27885664E-001   4.37913320E-001
   3.00000000E+001   5.34193192E-001   6.70550970E-001   5.21523223E-001
   3.50000000E+001   5.94164819E-001   6.93746712E-001   5.88073721E-001
   4.00000000E+001   6.44951916E-001   7.05924112E-001   6.41967052E-001
   4.50000000E+001   6.88053350E-001   7.12357512E-001   6.86538953E-001
   5.00000000E+001   7.24720626E-001   7.15861187E-001   7.23921373E-001
   5.50000000E+001   7.55940590E-001   7.17846135E-001   7.55501832E-001
   6.00000000E+001   7.82879001E-001   7.19017026E-001   7.82629750E-001
   6.50000000E+001   8.06184091E-001   7.19734382E-001   8.06038024E-001
   7.00000000E+001   8.26397436E-001   7.20189201E-001   8.26309424E-001
   7.50000000E+001   8.44018803E-001   7.20486519E-001   8.43964512E-001
   8.00000000E+001   8.59573524E-001   7.20686232E-001   8.59539380E-001
   8.50000000E+001   8.73183404E-001   7.20823663E-001   8.73161527E-001
   9.00000000E+001   8.85329227E-001   7.20920293E-001   8.85315039E-001
   9.50000000E+001   8.96032384E-001   7.20989561E-001   8.96023065E-001
   1.00000000E+002   9.05566756E-001   7.21040081E-001   9.05560581E-001
   1.05000000E+002   9.14124892E-001   7.21077511E-001   9.14120778E-001
   1.10000000E+002   9.21681523E-001   7.21105638E-001   9.21678769E-001
   1.15000000E+002   9.28539385E-001   7.21127051E-001   9.28537545E-001
   1.20000000E+002   9.34614440E-001   7.21143545E-001   9.34613214E-001
   1.25000000E+002   9.40184380E-001   7.21156390E-001   9.40183574E-001
   1.30000000E+002   9.45193819E-001   7.21166492E-001   9.45193299E-001
   1.35000000E+002   9.49746109E-001   7.21174512E-001   9.49745786E-001
   1.40000000E+002   9.53843236E-001   7.21180934E-001   9.53843045E-001
   1.45000000E+002   9.57621183E-001   7.21186116E-001   9.57621084E-001
   1.50000000E+002   9.61008369E-001   7.21190329E-001   9.61008331E-001
   1.55000000E+002   9.64142168E-001   7.21193778E-001   9.64142171E-001
   1.60000000E+002   9.66970213E-001   7.21196620E-001   9.66970244E-001
   1.65000000E+002   9.69563650E-001   7.21198976E-001   9.69563698E-001
   1.70000000E+002   9.71939015E-001   7.21200940E-001   9.71939074E-001
   1.75000000E+002   9.74091865E-001   7.21202586E-001   9.74091928E-001
   1.80000000E+002   9.76070440E-001   7.21203973E-001   9.76070506E-001
   1.85000000E+002   9.77883541E-001   7.21205147E-001   9.77883606E-001
   1.90000000E+002   9.79550664E-001   7.21206144E-001   9.79550728E-001
   1.95000000E+002   9.81104652E-001   7.21206997E-001   9.81104714E-001
   2.00000000E+002   9.82515701E-001   7.21207727E-001   9.82515760E-001
   2.05000000E+002   9.83824952E-001   7.21208356E-001   9.83825007E-001
   2.10000000E+002   9.85022902E-001   7.21208899E-001   9.85022954E-001
   2.15000000E+002   9.86105487E-001   7.21209370E-001   9.86105535E-001
   2.20000000E+002   9.87123794E-001   7.21209780E-001   9.87123839E-001
   2.25000000E+002   9.88057027E-001   7.21210137E-001   9.88057069E-001
   2.30000000E+002   9.88917803E-001   7.21210450E-001   9.88917842E-001
   2.35000000E+002   9.89720235E-001   7.21210724E-001   9.89720271E-001
   2.40000000E+002   9.90445284E-001   7.21210966E-001   9.90445317E-001
   2.45000000E+002   9.91131425E-001   7.21211179E-001   9.91131456E-001
