# ./jetvheto -in n3lo-fixed-order/H125-LHC13-R04-heft-xmur025-xmuf050-log.fxd -xQ 0.50 -out benchmarks-n3lo-smallR/H125-LHC13-R04-heft-xmur025-xmuf050-xQ050-NNLO+NNLLb.R0-0.5.res -scheme b -order 2 -ptmax 500.01 -fixed_order 2 -small-r -R0 0.5
# process = H    
# collider = pp   
# rts =  13000.000
# M   =    125.000
# muR =     31.250
# muF =     62.500
# Q   =     62.500
# p   =      5.000
# include_c1_squared =   F
# loop_mass  = none
# alphas(MZ) =    0.11800
# alphas(M) =    0.11264
# alphas(muR) =    0.14091
# Rjet =      0.400
# order = NNLL
# pdf name and set = PDF4LHC15_nnlo_mc.LHgrid,    0
# matching scheme = b
# total cross sections [nb] at LO, NLOdiff, NNLOdiff, N3LOdiff =     0.019087    0.023444    0.005009   -0.002663
#----------------------------------------------------------------------
# the lines that follow give the jet-veto efficiencies as a function of pt
#         pt            matched eff      resummed eff     fixed-order eff
   2.00000000E+001   4.44783354E-001   4.93175277E-001   3.51201593E-001
   2.50000000E+001   5.26016348E-001   5.63270090E-001   4.53092817E-001
   3.00000000E+001   5.91394433E-001   6.11629589E-001   5.34374852E-001
   3.50000000E+001   6.44408049E-001   6.44563826E-001   5.99824365E-001
   4.00000000E+001   6.88265505E-001   6.66508499E-001   6.53525896E-001
   4.50000000E+001   7.25050253E-001   6.80658840E-001   6.98153016E-001
   5.00000000E+001   7.56364717E-001   6.89408131E-001   7.35694236E-001
   5.50000000E+001   7.83261460E-001   6.94564794E-001   7.67474216E-001
   6.00000000E+001   8.06517070E-001   6.97455690E-001   7.94510343E-001
   6.50000000E+001   8.26924788E-001   6.98995881E-001   8.17803411E-001
   7.00000000E+001   8.44992328E-001   6.99774478E-001   8.38051240E-001
   7.50000000E+001   8.60764638E-001   7.00144542E-001   8.55460782E-001
   8.00000000E+001   8.74808332E-001   7.00304901E-001   8.70730835E-001
   8.50000000E+001   8.87301050E-001   7.00362033E-001   8.84143156E-001
   9.00000000E+001   8.98434925E-001   7.00371034E-001   8.95969392E-001
   9.50000000E+001   9.08225268E-001   7.00359409E-001   9.06284040E-001
   1.00000000E+002   9.17006290E-001   7.00340432E-001   9.15465002E-001
   1.05000000E+002   9.24758628E-001   7.00320229E-001   9.23524651E-001
   1.10000000E+002   9.31744269E-001   7.00301414E-001   9.30748349E-001
   1.15000000E+002   9.37968047E-001   7.00284912E-001   9.37158088E-001
   1.20000000E+002   9.43574491E-001   7.00270874E-001   9.42910903E-001
   1.25000000E+002   9.48629368E-001   7.00259123E-001   9.48081928E-001
   1.30000000E+002   9.53115702E-001   7.00249367E-001   9.52661099E-001
   1.35000000E+002   9.57205103E-001   7.00241295E-001   9.56825252E-001
   1.40000000E+002   9.60895084E-001   7.00234621E-001   9.60575828E-001
   1.45000000E+002   9.64184782E-001   7.00229097E-001   9.63914985E-001
   1.50000000E+002   9.67209682E-001   7.00224514E-001   9.66980484E-001
   1.55000000E+002   9.69922749E-001   7.00220700E-001   9.69727088E-001
   1.60000000E+002   9.72403556E-001   7.00217516E-001   9.72235737E-001
   1.65000000E+002   9.74625101E-001   7.00214847E-001   9.74480533E-001
   1.70000000E+002   9.76680407E-001   7.00212603E-001   9.76555346E-001
   1.75000000E+002   9.78573552E-001   7.00210707E-001   9.78464937E-001
   1.80000000E+002   9.80258408E-001   7.00209101E-001   9.80163723E-001
   1.85000000E+002   9.81811362E-001   7.00207734E-001   9.81728526E-001
   1.90000000E+002   9.83241143E-001   7.00206566E-001   9.83168427E-001
   1.95000000E+002   9.84530048E-001   7.00205565E-001   9.84466011E-001
   2.00000000E+002   9.85712255E-001   7.00204705E-001   9.85655687E-001
   2.05000000E+002   9.86815583E-001   7.00203962E-001   9.86765465E-001
   2.10000000E+002   9.87801152E-001   7.00203319E-001   9.87756625E-001
   2.15000000E+002   9.88733084E-001   7.00202760E-001   9.88693417E-001
   2.20000000E+002   9.89591144E-001   7.00202273E-001   9.89555717E-001
   2.25000000E+002   9.90339335E-001   7.00201848E-001   9.90307618E-001
   2.30000000E+002   9.91101418E-001   7.00201475E-001   9.91072955E-001
   2.35000000E+002   9.91752343E-001   7.00201147E-001   9.91726743E-001
   2.40000000E+002   9.92368250E-001   7.00200859E-001   9.92345174E-001
   2.45000000E+002   9.92939082E-001   7.00200604E-001   9.92918238E-001
