# ./jetvheto -in n3lo-fixed-order/H125-LHC13-R04-mb-0-mt-1725-xmur025-xmuf050-log.fxd -xQ 0.25 -out benchmarks-n3lo-smallR/H125-LHC13-R04-mb-0-mt-1725-xmur025-xmuf050-xQ025-N3LO+NNLLb.R0-1.0.res -scheme b -order 2 -ptmax 500.01 -small-r -fixed_order 3 -loop-mass t -R0 1.0
# process = H    
# collider = pp   
# rts =  13000.000
# M   =    125.000
# muR =     31.250
# muF =     62.500
# Q   =     31.250
# p   =      5.000
# include_c1_squared =   F
# loop_mass  = t   
# alphas(MZ) =    0.11800
# alphas(M) =    0.11264
# alphas(muR) =    0.14091
# Rjet =      0.400
# order = NNLL
# pdf name and set = PDF4LHC15_nnlo_mc.LHgrid,    0
# matching scheme = b
# total cross sections [nb] at LO, NLOdiff, NNLOdiff, N3LOdiff =     0.019855    0.024744    0.005009   -0.002663
#----------------------------------------------------------------------
# the lines that follow give the jet-veto efficiencies as a function of pt
#         pt            matched eff      resummed eff     fixed-order eff
   2.00000000E+001   4.81443012E-001   4.49542574E-001   4.93187641E-001
   2.50000000E+001   5.66199294E-001   5.11593703E-001   5.71298503E-001
   3.00000000E+001   6.39475423E-001   5.48248814E-001   6.42050719E-001
   3.50000000E+001   6.96587987E-001   5.68263767E-001   6.97801461E-001
   4.00000000E+001   7.38967423E-001   5.78799940E-001   7.39461966E-001
   4.50000000E+001   7.77087935E-001   5.84374919E-001   7.77318921E-001
   5.00000000E+001   8.06707038E-001   5.87413816E-001   8.06799084E-001
   5.50000000E+001   8.32627311E-001   5.89136343E-001   8.32664363E-001
   6.00000000E+001   8.53361284E-001   5.90152745E-001   8.53369721E-001
   6.50000000E+001   8.73493176E-001   5.90775567E-001   8.73494087E-001
   7.00000000E+001   8.87706024E-001   5.91170495E-001   8.87699485E-001
   7.50000000E+001   9.00757211E-001   5.91428681E-001   9.00749041E-001
   8.00000000E+001   9.12770425E-001   5.91602117E-001   9.12762648E-001
   8.50000000E+001   9.23479683E-001   5.91721470E-001   9.23472829E-001
   9.00000000E+001   9.32925611E-001   5.91805391E-001   9.32919743E-001
   9.50000000E+001   9.39936974E-001   5.91865549E-001   9.39931688E-001
   1.00000000E+002   9.46975698E-001   5.91909427E-001   9.46971221E-001
   1.05000000E+002   9.52099296E-001   5.91941934E-001   9.52095357E-001
   1.10000000E+002   9.56925033E-001   5.91966364E-001   9.56921641E-001
   1.15000000E+002   9.61713721E-001   5.91984961E-001   9.61710870E-001
   1.20000000E+002   9.66034648E-001   5.91999286E-001   9.66032250E-001
   1.25000000E+002   9.69364157E-001   5.92010442E-001   9.69362092E-001
   1.30000000E+002   9.72175440E-001   5.92019217E-001   9.72173659E-001
   1.35000000E+002   9.75224499E-001   5.92026182E-001   9.75222987E-001
   1.40000000E+002   9.78007030E-001   5.92031759E-001   9.78005743E-001
   1.45000000E+002   9.80341261E-001   5.92036260E-001   9.80340157E-001
   1.50000000E+002   9.81869617E-001   5.92039919E-001   9.81868648E-001
   1.55000000E+002   9.84077610E-001   5.92042915E-001   9.84076781E-001
   1.60000000E+002   9.86033308E-001   5.92045383E-001   9.86032595E-001
   1.65000000E+002   9.86769570E-001   5.92047430E-001   9.86768936E-001
   1.70000000E+002   9.88262430E-001   5.92049135E-001   9.88261879E-001
   1.75000000E+002   9.89657684E-001   5.92050565E-001   9.89657204E-001
   1.80000000E+002   9.90565721E-001   5.92051770E-001   9.90565298E-001
   1.85000000E+002   9.91392645E-001   5.92052789E-001   9.91392271E-001
   1.90000000E+002   9.92352284E-001   5.92053656E-001   9.92351955E-001
   1.95000000E+002   9.93251810E-001   5.92054396E-001   9.93251519E-001
   2.00000000E+002   9.94021629E-001   5.92055030E-001   9.94021372E-001
   2.05000000E+002   9.94528588E-001   5.92055577E-001   9.94528357E-001
   2.10000000E+002   9.95117842E-001   5.92056048E-001   9.95117637E-001
   2.15000000E+002   9.95466449E-001   5.92056457E-001   9.95466264E-001
   2.20000000E+002   9.96272678E-001   5.92056813E-001   9.96272514E-001
   2.25000000E+002   9.96491649E-001   5.92057123E-001   9.96491502E-001
   2.30000000E+002   9.96877078E-001   5.92057395E-001   9.96876945E-001
   2.35000000E+002   9.97097964E-001   5.92057633E-001   9.97097844E-001
   2.40000000E+002   9.97398572E-001   5.92057843E-001   9.97398463E-001
   2.45000000E+002   9.97849573E-001   5.92058028E-001   9.97849475E-001
