# ./jetvheto -in n3lo-fixed-order/H125-LHC13-R04-heft-xmur050-xmuf050-log.fxd -xQ 0.75 -out benchmarks-n3lo-smallR/H125-LHC13-R04-heft-xmur050-xmuf050-xQ075-N3LO+NNLLa.R0-1.5.res -scheme a -order 2 -ptmax 500.01 -fixed_order 3 -small-r -R0 1.5
# process = H    
# collider = pp   
# rts =  13000.000
# M   =    125.000
# muR =     62.500
# muF =     62.500
# Q   =     93.750
# p   =      5.000
# include_c1_squared =   F
# loop_mass  = none
# alphas(MZ) =    0.11800
# alphas(M) =    0.11264
# alphas(muR) =    0.12516
# Rjet =      0.400
# order = NNLL
# pdf name and set = PDF4LHC15_nnlo_mc.LHgrid,    0
# matching scheme = a
# total cross sections [nb] at LO, NLOdiff, NNLOdiff, N3LOdiff =     0.015055    0.019611    0.008998    0.001413
#----------------------------------------------------------------------
# the lines that follow give the jet-veto efficiencies as a function of pt
#         pt            matched eff      resummed eff     fixed-order eff
   2.00000000E+001   4.89620293E-001   5.63379798E-001   4.50065620E-001
   2.50000000E+001   5.71480931E-001   6.38987226E-001   5.35117843E-001
   3.00000000E+001   6.40394338E-001   6.91505908E-001   6.07875407E-001
   3.50000000E+001   6.94697612E-001   7.27679949E-001   6.65471707E-001
   4.00000000E+001   7.36434876E-001   7.52117475E-001   7.10255567E-001
   4.50000000E+001   7.72709714E-001   7.68038714E-001   7.49462038E-001
   5.00000000E+001   8.01360174E-001   7.77742342E-001   7.80889863E-001
   5.50000000E+001   8.26160542E-001   7.82921471E-001   8.08255100E-001
   6.00000000E+001   8.46161957E-001   7.84842892E-001   8.30655804E-001
   6.50000000E+001   8.64743695E-001   7.84485460E-001   8.51359759E-001
   7.00000000E+001   8.78794254E-001   7.82616315E-001   8.67401068E-001
   7.50000000E+001   8.91363136E-001   7.79834429E-001   8.81721105E-001
   8.00000000E+001   9.02754243E-001   7.76598457E-001   8.94630807E-001
   8.50000000E+001   9.12887928E-001   7.73243692E-001   9.06075690E-001
   9.00000000E+001   9.21886063E-001   7.69999005E-001   9.16194285E-001
   9.50000000E+001   9.29027147E-001   7.67003933E-001   9.24302841E-001
   1.00000000E+002   9.35895387E-001   7.64330418E-001   9.31969203E-001
   1.05000000E+002   9.41365687E-001   7.62001453E-001   9.38114001E-001
   1.10000000E+002   9.46478440E-001   7.60008149E-001   9.43779750E-001
   1.15000000E+002   9.51350217E-001   7.58323309E-001   9.49102964E-001
   1.20000000E+002   9.55781544E-001   7.56911216E-001   9.53905269E-001
   1.25000000E+002   9.59436848E-001   7.55733962E-001   9.57868349E-001
   1.30000000E+002   9.62648442E-001   7.54755398E-001   9.61333266E-001
   1.35000000E+002   9.65906877E-001   7.53942907E-001   9.64797911E-001
   1.40000000E+002   9.68872909E-001   7.53268109E-001   9.67934219E-001
   1.45000000E+002   9.71420858E-001   7.52706927E-001   9.70623723E-001
   1.50000000E+002   9.73403800E-001   7.52239259E-001   9.72725389E-001
   1.55000000E+002   9.75709048E-001   7.51848502E-001   9.75127782E-001
   1.60000000E+002   9.77803125E-001   7.51521029E-001   9.77303274E-001
   1.65000000E+002   9.79065518E-001   7.51245702E-001   9.78635491E-001
   1.70000000E+002   9.80740254E-001   7.51013430E-001   9.80367872E-001
   1.75000000E+002   9.82314093E-001   7.50816799E-001   9.81990419E-001
   1.80000000E+002   9.83522494E-001   7.50649758E-001   9.83240537E-001
   1.85000000E+002   9.84630634E-001   7.50507356E-001   9.84384183E-001
   1.90000000E+002   9.85780693E-001   7.50385541E-001   9.85564426E-001
   1.95000000E+002   9.86842834E-001   7.50280982E-001   9.86652461E-001
   2.00000000E+002   9.87791716E-001   7.50190937E-001   9.87623667E-001
   2.05000000E+002   9.88560278E-001   7.50113140E-001   9.88411596E-001
   2.10000000E+002   9.89342548E-001   7.50045715E-001   9.89210583E-001
   2.15000000E+002   9.89950590E-001   7.49987100E-001   9.89833220E-001
   2.20000000E+002   9.90813522E-001   7.49935993E-001   9.90708699E-001
   2.25000000E+002   9.91281587E-001   7.49891305E-001   9.91187907E-001
   2.30000000E+002   9.91852525E-001   7.49852123E-001   9.91768546E-001
   2.35000000E+002   9.92288630E-001   7.49817675E-001   9.92213208E-001
   2.40000000E+002   9.92758451E-001   7.49787313E-001   9.92690544E-001
   2.45000000E+002   9.93304087E-001   7.49760484E-001   9.93242783E-001
