# ./jetvheto -in n3lo-fixed-order/H125-LHC13-R04-heft-xmur200-xmuf100-log.fxd -xQ 0.50 -out benchmarks-n3lo-smallR/H125-LHC13-R04-heft-xmur200-xmuf100-xQ050-N3LO+NNLLa.R0-0.5.res -scheme a -order 2 -ptmax 500.01 -fixed_order 3 -small-r -R0 0.5
# process = H    
# collider = pp   
# rts =  13000.000
# M   =    125.000
# muR =    250.000
# muF =    125.000
# Q   =     62.500
# p   =      5.000
# include_c1_squared =   F
# loop_mass  = none
# alphas(MZ) =    0.11800
# alphas(M) =    0.11264
# alphas(muR) =    0.10244
# Rjet =      0.400
# order = NNLL
# pdf name and set = PDF4LHC15_nnlo_mc.LHgrid,    0
# matching scheme = a
# total cross sections [nb] at LO, NLOdiff, NNLOdiff, N3LOdiff =     0.010706    0.014429    0.010526    0.005600
#----------------------------------------------------------------------
# the lines that follow give the jet-veto efficiencies as a function of pt
#         pt            matched eff      resummed eff     fixed-order eff
   2.00000000E+001   4.64012032E-001   5.22709373E-001   4.83864536E-001
   2.50000000E+001   5.52107325E-001   6.08432675E-001   5.66336365E-001
   3.00000000E+001   6.24117675E-001   6.69822202E-001   6.33533594E-001
   3.50000000E+001   6.80468013E-001   7.13254478E-001   6.85744620E-001
   4.00000000E+001   7.25688143E-001   7.43444841E-001   7.28019410E-001
   4.50000000E+001   7.62035166E-001   7.63939717E-001   7.62485566E-001
   5.00000000E+001   7.92161927E-001   7.77469479E-001   7.91575294E-001
   5.50000000E+001   8.17384806E-001   7.86151235E-001   8.16332377E-001
   6.00000000E+001   8.38458747E-001   7.91593076E-001   8.37282852E-001
   6.50000000E+001   8.56908305E-001   7.94956790E-001   8.55795786E-001
   7.00000000E+001   8.72472389E-001   7.97030920E-001   8.71499263E-001
   7.50000000E+001   8.85559046E-001   7.98321068E-001   8.84743336E-001
   8.00000000E+001   8.97026176E-001   7.99137734E-001   8.96358926E-001
   8.50000000E+001   9.07293859E-001   7.99666663E-001   9.06755095E-001
   9.00000000E+001   9.16186288E-001   8.00018089E-001   9.15753146E-001
   9.50000000E+001   9.24237148E-001   8.00257685E-001   9.23889231E-001
   1.00000000E+002   9.31095846E-001   8.00425114E-001   9.30815615E-001
   1.05000000E+002   9.37248594E-001   8.00544801E-001   9.37021976E-001
   1.10000000E+002   9.42787065E-001   8.00632136E-001   9.42602908E-001
   1.15000000E+002   9.47764482E-001   8.00697043E-001   9.47613977E-001
   1.20000000E+002   9.52143420E-001   8.00746076E-001   9.52019706E-001
   1.25000000E+002   9.55983331E-001   8.00783659E-001   9.55881030E-001
   1.30000000E+002   9.59700367E-001   8.00812843E-001   9.59615306E-001
   1.35000000E+002   9.63015608E-001   8.00835769E-001   9.62944475E-001
   1.40000000E+002   9.65848040E-001   8.00853968E-001   9.65788234E-001
   1.45000000E+002   9.68538997E-001   8.00868553E-001   9.68488446E-001
   1.50000000E+002   9.70857244E-001   8.00880343E-001   9.70814307E-001
   1.55000000E+002   9.73224352E-001   8.00889950E-001   9.73187714E-001
   1.60000000E+002   9.75012887E-001   8.00897833E-001   9.74981471E-001
   1.65000000E+002   9.76824010E-001   8.00904347E-001   9.76796960E-001
   1.70000000E+002   9.78448573E-001   8.00909763E-001   9.78425185E-001
   1.75000000E+002   9.79994414E-001   8.00914292E-001   9.79974116E-001
   1.80000000E+002   9.81422458E-001   8.00918099E-001   9.81404775E-001
   1.85000000E+002   9.82713073E-001   8.00921317E-001   9.82697613E-001
   1.90000000E+002   9.83714505E-001   8.00924048E-001   9.83700941E-001
   1.95000000E+002   9.84871252E-001   8.00926378E-001   9.84859315E-001
   2.00000000E+002   9.85884775E-001   8.00928374E-001   9.85874236E-001
   2.05000000E+002   9.86779026E-001   8.00930090E-001   9.86769694E-001
   2.10000000E+002   9.87594755E-001   8.00931571E-001   9.87586470E-001
   2.15000000E+002   9.88439975E-001   8.00932854E-001   9.88432599E-001
   2.20000000E+002   9.89116319E-001   8.00933969E-001   9.89109735E-001
   2.25000000E+002   9.89797474E-001   8.00934941E-001   9.89791583E-001
   2.30000000E+002   9.90436026E-001   8.00935792E-001   9.90430742E-001
   2.35000000E+002   9.91038455E-001   8.00936538E-001   9.91033704E-001
   2.40000000E+002   9.91503837E-001   8.00937195E-001   9.91499557E-001
   2.45000000E+002   9.92043112E-001   8.00937774E-001   9.92039248E-001
