# python build-Q2-histos.py --mtQ1file ../../JetVHeto/benchmarks-n3lo-smallR/H125-LHC13-R04-mb-0-mt-1725-xmur100-xmuf100-xQ050-N3LO+NNLLb.R0-1.0.res --mtQ2file ../../JetVHeto/benchmarks-n3lo-smallR/H125-LHC13-R04-mb-0-mt-1725-xmur100-xmuf100-xQ025-N3LO+NNLLb.R0-1.0.res --mtmbQ2file ../../JetVHeto/benchmarks-n3lo-smallR/H125-LHC13-R04-mb-475-mt-1725-xmur100-xmuf100-xQ025-N3LO+NNLLb.R0-1.0.res
# process = H    
# collider = pp   
# rts =  13000.000
# M   =    125.000
# muR =    125.000
# muF =    125.000
# Q1  =  62.500; Q2  =  31.250
# p   =      5.000
# include_c1_squared =   F
# loop_mass  = t+b 
# alphas(MZ) =    0.11800
# alphas(M) =    0.11264
# alphas(muR) =    0.11264
# Rjet =      0.400
# order = NNLL
# pdf name and set = PDF4LHC15_nnlo_mc.LHgrid,    0
# matching scheme = b
# total cross sections [nb] at LO, NLOdiff, NNLOdiff, N3LOdiff =     0.012292    0.016994    0.010146    0.003834
#----------------------------------------------------------------------
# the lines that follow give the jet-veto efficiencies as a function of pt
#         pt            matched eff      resummed eff     fixed-order eff
20.0 0.426344159282 0.501553413162 0.39797497
25.0 0.512303700251 0.581714786572 0.491794485
30.0 0.585689663722 0.639282136775 0.570830727
35.0 0.643833363863 0.680155574251 0.632372721
40.0 0.691202745366 0.708557168303 0.682195687
45.0 0.730016474489 0.727717515649 0.72290355
50.0 0.763068010037 0.740208788387 0.757489684
55.0 0.791403295627 0.748073852243 0.787062825
60.0 0.815424877231 0.752879642779 0.812064423
65.0 0.83697728623 0.755756444299 0.834389891
70.0 0.855256482392 0.757463874231 0.853266196
75.0 0.870449369434 0.758481057632 0.868915734
80.0 0.883910782729 0.759095755758 0.882724838
85.0 0.896095433913 0.759475385447 0.895173737
90.0 0.906572519948 0.759716123224 0.905851124
95.0 0.916173014747 0.759873188152 0.915604325
100.0 0.924207083043 0.759978622566 0.923755321
105.0 0.931456996196 0.760051349454 0.931095317
110.0 0.937967798936 0.760102793549 0.937676052
115.0 0.943826286806 0.760140022505 0.943589165
120.0 0.948885610061 0.760167519377 0.948691534
125.0 0.953325272086 0.760188200902 0.953165332
130.0 0.957743455342 0.760204008773 0.957610782
135.0 0.961638398953 0.760216262566 0.961527659
140.0 0.964904118115 0.760225885728 0.964811168
145.0 0.968038939718 0.760233527765 0.967960469
150.0 0.970696020028 0.760239656963 0.970629444
155.0 0.973553393942 0.760244620027 0.973496621
160.0 0.975488002155 0.760248670459 0.975439366
165.0 0.977574766958 0.760252003824 0.977532916
170.0 0.979398269673 0.760254764466 0.979362104
175.0 0.981173910296 0.760257064262 0.981142536
180.0 0.982792925841 0.760258993664 0.982765601
185.0 0.984256336397 0.760260620752 0.984232456
190.0 0.98528088637 0.760261998276 0.985259944
195.0 0.986598963336 0.760263170939 0.986580536
200.0 0.987717794918 0.760264175305 0.987701531
205.0 0.988677235724 0.7602650377 0.988662839
210.0 0.989544024645 0.760265780455 0.989531244
215.0 0.990491106086 0.760266423896 0.990479731
220.0 0.991183641499 0.760266981165 0.99117349
225.0 0.9919111209 0.760267468543 0.991902037
230.0 0.992586453068 0.760267895076 0.992578309
235.0 0.993209808349 0.76026826686 0.993202487
240.0 0.993634733944 0.760268595127 0.99362814
245.0 0.994205604384 0.760268884879 0.994199651
