# ./jetvheto -in n3lo-fixed-order/H125-LHC13-R04-mb-475-mt-1725-xmur050-xmuf100-log.fxd -xQ 0.5 -out benchmarks-n3lo-smallR/H125-LHC13-R04-mb-475-mt-1725-xmur050-xmuf100-xQ050-N3LO+NNLLa.res -scheme a -order 2 -ptmax 500.01 -fixed_order 3 -loop-mass t+b
# process = H    
# collider = pp   
# rts =  13000.000
# M   =    125.000
# muR =     62.500
# muF =    125.000
# Q   =     62.500
# p   =      5.000
# include_c1_squared =   F
# loop_mass  = t+b 
# alphas(MZ) =    0.11800
# alphas(M) =    0.11264
# alphas(muR) =    0.12516
# Rjet =      0.400
# order = NNLL
# pdf name and set = PDF4LHC15_nnlo_mc.LHgrid,    0
# matching scheme = a
# total cross sections [nb] at LO, NLOdiff, NNLOdiff, N3LOdiff =     0.015023    0.020252    0.008553    0.000949
#----------------------------------------------------------------------
# the lines that follow give the jet-veto efficiencies as a function of pt
#         pt            matched eff      resummed eff     fixed-order eff
   2.00000000E+001   4.43390535E-001   4.84862666E-001   4.34275701E-001
   2.50000000E+001   5.29879527E-001   5.58986195E-001   5.20687147E-001
   3.00000000E+001   6.04957311E-001   6.10861379E-001   5.97055125E-001
   3.50000000E+001   6.62907546E-001   6.46699934E-001   6.55665178E-001
   4.00000000E+001   7.09460201E-001   6.70957666E-001   7.03001592E-001
   4.50000000E+001   7.46969504E-001   6.86913729E-001   7.41403361E-001
   5.00000000E+001   7.78901441E-001   6.97045242E-001   7.74275319E-001
   5.50000000E+001   8.06332270E-001   7.03235291E-001   8.02589654E-001
   6.00000000E+001   8.29286470E-001   7.06881940E-001   8.26309804E-001
   6.50000000E+001   8.50249433E-001   7.08967827E-001   8.47913789E-001
   7.00000000E+001   8.67781593E-001   7.10137639E-001   8.65962067E-001
   7.50000000E+001   8.81922577E-001   7.10787706E-001   8.80509228E-001
   8.00000000E+001   8.94462242E-001   7.11149104E-001   8.93363259E-001
   8.50000000E+001   9.06038022E-001   7.11351564E-001   9.05180306E-001
   9.00000000E+001   9.15757710E-001   7.11466484E-001   9.15084552E-001
   9.50000000E+001   9.24872739E-001   7.11532808E-001   9.24340806E-001
   1.00000000E+002   9.32219198E-001   7.11571805E-001   9.31796185E-001
   1.05000000E+002   9.38873189E-001   7.11595191E-001   9.38534274E-001
   1.10000000E+002   9.44913156E-001   7.11609497E-001   9.44639596E-001
   1.15000000E+002   9.50319414E-001   7.11618425E-001   9.50096981E-001
   1.20000000E+002   9.54917152E-001   7.11624105E-001   9.54735085E-001
   1.25000000E+002   9.58840030E-001   7.11627789E-001   9.58690034E-001
   1.30000000E+002   9.63006105E-001   7.11630222E-001   9.62881653E-001
   1.35000000E+002   9.66611810E-001   7.11631857E-001   9.66507929E-001
   1.40000000E+002   9.69512351E-001   7.11632975E-001   9.69425203E-001
   1.45000000E+002   9.72361448E-001   7.11633752E-001   9.72287888E-001
   1.50000000E+002   9.74700749E-001   7.11634300E-001   9.74638375E-001
   1.55000000E+002   9.77461319E-001   7.11634693E-001   9.77408127E-001
   1.60000000E+002   9.78986975E-001   7.11634979E-001   9.78941444E-001
   1.65000000E+002   9.80859899E-001   7.11635190E-001   9.80820738E-001
   1.70000000E+002   9.82441564E-001   7.11635348E-001   9.82407738E-001
   1.75000000E+002   9.84064409E-001   7.11635467E-001   9.84035074E-001
   1.80000000E+002   9.85534289E-001   7.11635559E-001   9.85508749E-001
   1.85000000E+002   9.86855849E-001   7.11635630E-001   9.86833536E-001
   1.90000000E+002   9.87590798E-001   7.11635685E-001   9.87571245E-001
   1.95000000E+002   9.88816086E-001   7.11635729E-001   9.88798885E-001
   2.00000000E+002   9.89815847E-001   7.11635765E-001   9.89800670E-001
   2.05000000E+002   9.90624750E-001   7.11635793E-001   9.90611320E-001
   2.10000000E+002   9.91350952E-001   7.11635816E-001   9.91339035E-001
   2.15000000E+002   9.92253822E-001   7.11635835E-001   9.92243217E-001
   2.20000000E+002   9.92804816E-001   7.11635851E-001   9.92795355E-001
   2.25000000E+002   9.93449686E-001   7.11635865E-001   9.93441224E-001
   2.30000000E+002   9.94051151E-001   7.11635876E-001   9.94043564E-001
   2.35000000E+002   9.94600500E-001   7.11635885E-001   9.94593682E-001
   2.40000000E+002   9.94893905E-001   7.11635893E-001   9.94887766E-001
   2.45000000E+002   9.95422189E-001   7.11635900E-001   9.95416648E-001
