# ./jetvheto -in n3lo-fixed-order/H125-LHC13-R04-mb-0-mt-1725-xmur200-xmuf100-log.fxd -xQ 0.5 -out benchmarks-n3lo-smallR/H125-LHC13-R04-mb-0-mt-1725-xmur200-xmuf100-xQ050-NNLO+NNLLb.res -scheme b -order 2 -ptmax 500.01 -fixed_order 2 -loop-mass t
# process = H    
# collider = pp   
# rts =  13000.000
# M   =    125.000
# muR =    250.000
# muF =    125.000
# Q   =     62.500
# p   =      5.000
# include_c1_squared =   F
# loop_mass  = t   
# alphas(MZ) =    0.11800
# alphas(M) =    0.11264
# alphas(muR) =    0.10244
# Rjet =      0.400
# order = NNLL
# pdf name and set = PDF4LHC15_nnlo_mc.LHgrid,    0
# matching scheme = b
# total cross sections [nb] at LO, NLOdiff, NNLOdiff, N3LOdiff =     0.011501    0.015066    0.010526    0.005600
#----------------------------------------------------------------------
# the lines that follow give the jet-veto efficiencies as a function of pt
#         pt            matched eff      resummed eff     fixed-order eff
   2.00000000E+001   4.28962494E-001   5.32434914E-001   3.67201827E-001
   2.50000000E+001   5.13962945E-001   6.19797763E-001   4.73161072E-001
   3.00000000E+001   5.82444163E-001   6.82363726E-001   5.53722917E-001
   3.50000000E+001   6.38403925E-001   7.26629491E-001   6.17253656E-001
   4.00000000E+001   6.84589855E-001   7.57399968E-001   6.68576569E-001
   4.50000000E+001   7.22892386E-001   7.78289210E-001   7.10591480E-001
   5.00000000E+001   7.55162625E-001   7.92079754E-001   7.45672623E-001
   5.50000000E+001   7.82534650E-001   8.00929204E-001   7.75224424E-001
   6.00000000E+001   8.06075262E-001   8.06476435E-001   8.00466992E-001
   6.50000000E+001   8.26457994E-001   8.09905499E-001   8.22168588E-001
   7.00000000E+001   8.44116586E-001   8.12020070E-001   8.40838970E-001
   7.50000000E+001   8.59727522E-001   8.13335471E-001   8.57218355E-001
   8.00000000E+001   8.73498927E-001   8.14168187E-001   8.71570191E-001
   8.50000000E+001   8.85616711E-001   8.14707551E-001   8.84125319E-001
   9.00000000E+001   8.96390971E-001   8.15065935E-001   8.95229677E-001
   9.50000000E+001   9.05932705E-001   8.15310291E-001   9.05021342E-001
   1.00000000E+002   9.14492468E-001   8.15481055E-001   9.13771358E-001
   1.05000000E+002   9.22152747E-001   8.15603133E-001   9.21577501E-001
   1.10000000E+002   9.28945124E-001   8.15692216E-001   9.28482563E-001
   1.15000000E+002   9.35125970E-001   8.15758424E-001   9.34751096E-001
   1.20000000E+002   9.40659932E-001   8.15808441E-001   9.40353848E-001
   1.25000000E+002   9.45671866E-001   8.15846780E-001   9.45420170E-001
   1.30000000E+002   9.50221135E-001   8.15876550E-001   9.50012754E-001
   1.35000000E+002   9.54312918E-001   8.15899938E-001   9.54139308E-001
   1.40000000E+002   9.58037931E-001   8.15918504E-001   9.57892400E-001
   1.45000000E+002   9.61451999E-001   8.15933383E-001   9.61329318E-001
   1.50000000E+002   9.64516344E-001   8.15945411E-001   9.64412364E-001
   1.55000000E+002   9.67353987E-001   8.15955211E-001   9.67265406E-001
   1.60000000E+002   9.69943698E-001   8.15963254E-001   9.69867876E-001
   1.65000000E+002   9.72294925E-001   8.15969899E-001   9.72229728E-001
   1.70000000E+002   9.74453945E-001   8.15975424E-001   9.74397644E-001
   1.75000000E+002   9.76401257E-001   8.15980044E-001   9.76352441E-001
   1.80000000E+002   9.78207161E-001   8.15983929E-001   9.78164670E-001
   1.85000000E+002   9.79850214E-001   8.15987211E-001   9.79813093E-001
   1.90000000E+002   9.81372297E-001   8.15989998E-001   9.81339755E-001
   1.95000000E+002   9.82776976E-001   8.15992375E-001   9.82748354E-001
   2.00000000E+002   9.84054289E-001   8.15994411E-001   9.84029035E-001
   2.05000000E+002   9.85246431E-001   8.15996161E-001   9.85224081E-001
   2.10000000E+002   9.86326035E-001   8.15997672E-001   9.86306199E-001
   2.15000000E+002   9.87315364E-001   8.15998981E-001   9.87297711E-001
   2.20000000E+002   9.88240367E-001   8.16000119E-001   9.88224615E-001
   2.25000000E+002   9.89088448E-001   8.16001111E-001   9.89074358E-001
   2.30000000E+002   9.89874521E-001   8.16001979E-001   9.89861887E-001
   2.35000000E+002   9.90609685E-001   8.16002740E-001   9.90598331E-001
   2.40000000E+002   9.91273275E-001   8.16003410E-001   9.91263048E-001
   2.45000000E+002   9.91895844E-001   8.16004001E-001   9.91886612E-001
