# ./jetvheto -in n3lo-fixed-order/H125-LHC13-R04-heft-xmur100-xmuf100-log.fxd -xQ 0.50 -out benchmarks-n3lo-smallR/H125-LHC13-R04-heft-xmur100-xmuf100-xQ050-N3LO+NNLLb.R0-1.0.res -scheme b -order 2 -ptmax 500.01 -fixed_order 3 -small-r -R0 1.0
# process = H    
# collider = pp   
# rts =  13000.000
# M   =    125.000
# muR =    125.000
# muF =    125.000
# Q   =     62.500
# p   =      5.000
# include_c1_squared =   F
# loop_mass  = none
# alphas(MZ) =    0.11800
# alphas(M) =    0.11264
# alphas(muR) =    0.11264
# Rjet =      0.400
# order = NNLL
# pdf name and set = PDF4LHC15_nnlo_mc.LHgrid,    0
# matching scheme = b
# total cross sections [nb] at LO, NLOdiff, NNLOdiff, N3LOdiff =     0.012945    0.016716    0.010146    0.003834
#----------------------------------------------------------------------
# the lines that follow give the jet-veto efficiencies as a function of pt
#         pt            matched eff      resummed eff     fixed-order eff
   2.00000000E+001   4.38215281E-001   5.17776287E-001   4.08842854E-001
   2.50000000E+001   5.23093674E-001   5.99447605E-001   5.02042917E-001
   3.00000000E+001   5.95320619E-001   6.57318625E-001   5.80189507E-001
   3.50000000E+001   6.52123991E-001   6.97819720E-001   6.40535859E-001
   4.00000000E+001   6.98444767E-001   7.25635199E-001   6.89380469E-001
   4.50000000E+001   7.36210035E-001   7.44252313E-001   7.29072921E-001
   5.00000000E+001   7.68305309E-001   7.56332590E-001   7.62718280E-001
   5.50000000E+001   7.95807035E-001   7.63921118E-001   7.91464926E-001
   6.00000000E+001   8.19038368E-001   7.68555021E-001   8.15679320E-001
   6.50000000E+001   8.39892571E-001   7.71330752E-001   8.37307615E-001
   7.00000000E+001   8.57515456E-001   7.72980955E-001   8.55527758E-001
   7.50000000E+001   8.72184548E-001   7.73966479E-001   8.70653294E-001
   8.00000000E+001   8.85112511E-001   7.74563875E-001   8.83928611E-001
   8.50000000E+001   8.96846697E-001   7.74934101E-001   8.95926690E-001
   9.00000000E+001   9.06903095E-001   7.75169735E-001   9.06183068E-001
   9.50000000E+001   9.16134168E-001   7.75324034E-001   9.15566581E-001
   1.00000000E+002   9.23843813E-001   7.75427976E-001   9.23392937E-001
   1.05000000E+002   9.30777711E-001   7.75499906E-001   9.30416744E-001
   1.10000000E+002   9.37053022E-001   7.75550937E-001   9.36761850E-001
   1.15000000E+002   9.42679436E-001   7.75587962E-001   9.42442779E-001
   1.20000000E+002   9.47584862E-001   7.75615370E-001   9.47391165E-001
   1.25000000E+002   9.51826959E-001   7.75636023E-001   9.51667329E-001
   1.30000000E+002   9.56075353E-001   7.75651835E-001   9.55942935E-001
   1.35000000E+002   9.59826380E-001   7.75664111E-001   9.59715852E-001
   1.40000000E+002   9.62957325E-001   7.75673761E-001   9.62864552E-001
   1.45000000E+002   9.65971653E-001   7.75681431E-001   9.65893331E-001
   1.50000000E+002   9.68520605E-001   7.75687590E-001   9.68454154E-001
   1.55000000E+002   9.71258660E-001   7.75692579E-001   9.71201993E-001
   1.60000000E+002   9.73128011E-001   7.75696654E-001   9.73079465E-001
   1.65000000E+002   9.75137279E-001   7.75700008E-001   9.75095505E-001
   1.70000000E+002   9.76909085E-001   7.75702787E-001   9.76872986E-001
   1.75000000E+002   9.78637813E-001   7.75705105E-001   9.78606495E-001
   1.80000000E+002   9.80229271E-001   7.75707048E-001   9.80201996E-001
   1.85000000E+002   9.81661927E-001   7.75708687E-001   9.81638090E-001
   1.90000000E+002   9.82666936E-001   7.75710076E-001   9.82646032E-001
   1.95000000E+002   9.83970994E-001   7.75711259E-001   9.83952600E-001
   2.00000000E+002   9.85088265E-001   7.75712271E-001   9.85072030E-001
   2.05000000E+002   9.86047491E-001   7.75713140E-001   9.86033119E-001
   2.10000000E+002   9.86918789E-001   7.75713890E-001   9.86906031E-001
   2.15000000E+002   9.87879868E-001   7.75714539E-001   9.87868512E-001
   2.20000000E+002   9.88586326E-001   7.75715102E-001   9.88576191E-001
   2.25000000E+002   9.89332300E-001   7.75715593E-001   9.89323232E-001
   2.30000000E+002   9.90032746E-001   7.75716022E-001   9.90024614E-001
   2.35000000E+002   9.90690678E-001   7.75716399E-001   9.90683369E-001
   2.40000000E+002   9.91151996E-001   7.75716730E-001   9.91145412E-001
   2.45000000E+002   9.91754052E-001   7.75717022E-001   9.91748108E-001
