# ./jetvheto -in n3lo-fixed-order/H125-LHC13-R04-mb-475-mt-1725-xmur200-xmuf200-log.fxd -xQ 0.5 -out benchmarks-n3lo-smallR/H125-LHC13-R04-mb-475-mt-1725-xmur200-xmuf200-xQ050-N3LO+NNLLb.R0-0.5.res -scheme b -order 2 -ptmax 500.01 -fixed_order 3 -small-r -loop-mass t+b -R0 0.5
# process = H    
# collider = pp   
# rts =  13000.000
# M   =    125.000
# muR =    250.000
# muF =    250.000
# Q   =     62.500
# p   =      5.000
# include_c1_squared =   F
# loop_mass  = t+b 
# alphas(MZ) =    0.11800
# alphas(M) =    0.11264
# alphas(muR) =    0.10244
# Rjet =      0.400
# order = NNLL
# pdf name and set = PDF4LHC15_nnlo_mc.LHgrid,    0
# matching scheme = b
# total cross sections [nb] at LO, NLOdiff, NNLOdiff, N3LOdiff =     0.010658    0.014649    0.010464    0.005358
#----------------------------------------------------------------------
# the lines that follow give the jet-veto efficiencies as a function of pt
#         pt            matched eff      resummed eff     fixed-order eff
   2.00000000E+001   4.23274836E-001   5.28673715E-001   3.93395559E-001
   2.50000000E+001   5.11338308E-001   6.11421150E-001   4.92532833E-001
   3.00000000E+001   5.81292378E-001   6.70014595E-001   5.68240268E-001
   3.50000000E+001   6.39494825E-001   7.10992506E-001   6.29965429E-001
   4.00000000E+001   6.87501684E-001   7.39116546E-001   6.80230765E-001
   4.50000000E+001   7.26528956E-001   7.57921329E-001   7.20815417E-001
   5.00000000E+001   7.60947385E-001   7.70105132E-001   7.56465253E-001
   5.50000000E+001   7.89005408E-001   7.77744863E-001   7.85472917E-001
   6.00000000E+001   8.13014535E-001   7.82399780E-001   8.10248405E-001
   6.50000000E+001   8.33494228E-001   7.85180086E-001   8.31339503E-001
   7.00000000E+001   8.52126649E-001   7.86827164E-001   8.50454712E-001
   7.50000000E+001   8.67594117E-001   7.87806700E-001   8.66297011E-001
   8.00000000E+001   8.81114113E-001   7.88397610E-001   8.80105627E-001
   8.50000000E+001   8.93189369E-001   7.88761961E-001   8.92402216E-001
   9.00000000E+001   9.03538501E-001   7.88992649E-001   9.02920500E-001
   9.50000000E+001   9.13237836E-001   7.89142908E-001   9.12749431E-001
   1.00000000E+002   9.21444533E-001   7.89243608E-001   9.21055914E-001
   1.05000000E+002   9.28691175E-001   7.89312980E-001   9.28379619E-001
   1.10000000E+002   9.34982678E-001   7.89361993E-001   9.34731087E-001
   1.15000000E+002   9.40955140E-001   7.89397427E-001   9.40750487E-001
   1.20000000E+002   9.46371486E-001   7.89423576E-001   9.46203839E-001
   1.25000000E+002   9.50886253E-001   7.89443229E-001   9.50748033E-001
   1.30000000E+002   9.55186107E-001   7.89458240E-001   9.55071404E-001
   1.35000000E+002   9.58880064E-001   7.89469872E-001   9.58784295E-001
   1.40000000E+002   9.62574533E-001   7.89479001E-001   9.62494103E-001
   1.45000000E+002   9.65526321E-001   7.89486247E-001   9.65458416E-001
   1.50000000E+002   9.68423477E-001   7.89492059E-001   9.68365842E-001
   1.55000000E+002   9.71005502E-001   7.89496763E-001   9.70956346E-001
   1.60000000E+002   9.73270732E-001   7.89500602E-001   9.73228609E-001
   1.65000000E+002   9.75244837E-001   7.89503759E-001   9.75208585E-001
   1.70000000E+002   9.77328442E-001   7.89506374E-001   9.77297108E-001
   1.75000000E+002   9.79030936E-001   7.89508553E-001   9.79003749E-001
   1.80000000E+002   9.80870266E-001   7.89510380E-001   9.80846583E-001
   1.85000000E+002   9.82203118E-001   7.89511920E-001   9.82182417E-001
   1.90000000E+002   9.83551662E-001   7.89513225E-001   9.83533505E-001
   1.95000000E+002   9.84755341E-001   7.89514336E-001   9.84739364E-001
   2.00000000E+002   9.86064020E-001   7.89515286E-001   9.86049915E-001
   2.05000000E+002   9.86981916E-001   7.89516102E-001   9.86969430E-001
   2.10000000E+002   9.87856100E-001   7.89516805E-001   9.87845014E-001
   2.15000000E+002   9.88790777E-001   7.89517414E-001   9.88780907E-001
   2.20000000E+002   9.89655956E-001   7.89517942E-001   9.89647147E-001
   2.25000000E+002   9.90334743E-001   7.89518403E-001   9.90326861E-001
   2.30000000E+002   9.90986980E-001   7.89518806E-001   9.90979911E-001
   2.35000000E+002   9.91660415E-001   7.89519159E-001   9.91654060E-001
   2.40000000E+002   9.92246151E-001   7.89519470E-001   9.92240426E-001
   2.45000000E+002   9.92812806E-001   7.89519743E-001   9.92807637E-001
