# ./jetvheto -in n3lo-fixed-order/H125-LHC13-R04-mb-475-mt-1725-xmur100-xmuf100-log.fxd -xQ 0.333 -out benchmarks-n3lo-smallR/H125-LHC13-R04-mb-475-mt-1725-xmur100-xmuf100-xQ033-N3LO+NNLLb.R0-1.0.res -scheme b -order 2 -ptmax 500.01 -fixed_order 3 -small-r -loop-mass t+b -R0 1.0
# process = H    
# collider = pp   
# rts =  13000.000
# M   =    125.000
# muR =    125.000
# muF =    125.000
# Q   =     41.625
# p   =      5.000
# include_c1_squared =   F
# loop_mass  = t+b 
# alphas(MZ) =    0.11800
# alphas(M) =    0.11264
# alphas(muR) =    0.11264
# Rjet =      0.400
# order = NNLL
# pdf name and set = PDF4LHC15_nnlo_mc.LHgrid,    0
# matching scheme = b
# total cross sections [nb] at LO, NLOdiff, NNLOdiff, N3LOdiff =     0.012292    0.016994    0.010146    0.003834
#----------------------------------------------------------------------
# the lines that follow give the jet-veto efficiencies as a function of pt
#         pt            matched eff      resummed eff     fixed-order eff
   2.00000000E+001   4.19989140E-001   5.06140607E-001   3.97974970E-001
   2.50000000E+001   5.05178843E-001   5.82948953E-001   4.91794485E-001
   3.00000000E+001   5.78567798E-001   6.34773689E-001   5.70830727E-001
   3.50000000E+001   6.37073246E-001   6.68279594E-001   6.32372721E-001
   4.00000000E+001   6.85094624E-001   6.89038410E-001   6.82195687E-001
   4.50000000E+001   7.24724097E-001   7.01523713E-001   7.22903550E-001
   5.00000000E+001   7.58642940E-001   7.08958623E-001   7.57489684E-001
   5.50000000E+001   7.87804851E-001   7.13420655E-001   7.87062825E-001
   6.00000000E+001   8.12555827E-001   7.16150140E-001   8.12064423E-001
   6.50000000E+001   8.34719636E-001   7.17861249E-001   8.34389891E-001
   7.00000000E+001   8.53494097E-001   7.18962252E-001   8.53266196E-001
   7.50000000E+001   8.69078402E-001   7.19688979E-001   8.68915734E-001
   8.00000000E+001   8.82843114E-001   7.20180304E-001   8.82724838E-001
   8.50000000E+001   8.95260782E-001   7.20519907E-001   8.95173737E-001
   9.00000000E+001   9.05916627E-001   7.20759432E-001   9.05851124E-001
   9.50000000E+001   9.15654092E-001   7.20931507E-001   9.15604325E-001
   1.00000000E+002   9.23793924E-001   7.21057213E-001   9.23755321E-001
   1.05000000E+002   9.31125599E-001   7.21150455E-001   9.31095317E-001
   1.10000000E+002   9.37700033E-001   7.21220585E-001   9.37676052E-001
   1.15000000E+002   9.43608363E-001   7.21274008E-001   9.43589165E-001
   1.20000000E+002   9.48707074E-001   7.21315182E-001   9.48691534E-001
   1.25000000E+002   9.53178048E-001   7.21347258E-001   9.53165332E-001
   1.30000000E+002   9.57621208E-001   7.21372495E-001   9.57610782E-001
   1.35000000E+002   9.61536285E-001   7.21392534E-001   9.61527659E-001
   1.40000000E+002   9.64818375E-001   7.21408581E-001   9.64811168E-001
   1.45000000E+002   9.67966519E-001   7.21421533E-001   9.67960469E-001
   1.50000000E+002   9.70634561E-001   7.21432065E-001   9.70629444E-001
   1.55000000E+002   9.73500949E-001   7.21440688E-001   9.73496621E-001
   1.60000000E+002   9.75443080E-001   7.21447794E-001   9.75439366E-001
   1.65000000E+002   9.77536103E-001   7.21453684E-001   9.77532916E-001
   1.70000000E+002   9.79364854E-001   7.21458596E-001   9.79362104E-001
   1.75000000E+002   9.81144914E-001   7.21462712E-001   9.81142536E-001
   1.80000000E+002   9.82767668E-001   7.21466180E-001   9.82765601E-001
   1.85000000E+002   9.84234259E-001   7.21469116E-001   9.84232456E-001
   1.90000000E+002   9.85261529E-001   7.21471611E-001   9.85259944E-001
   1.95000000E+002   9.86581927E-001   7.21473743E-001   9.86580536E-001
   2.00000000E+002   9.87702757E-001   7.21475570E-001   9.87701531E-001
   2.05000000E+002   9.88663924E-001   7.21477143E-001   9.88662839E-001
   2.10000000E+002   9.89532208E-001   7.21478501E-001   9.89531244E-001
   2.15000000E+002   9.90480586E-001   7.21479679E-001   9.90479731E-001
   2.20000000E+002   9.91174255E-001   7.21480703E-001   9.91173490E-001
   2.25000000E+002   9.91902720E-001   7.21481597E-001   9.91902037E-001
   2.30000000E+002   9.92578921E-001   7.21482379E-001   9.92578309E-001
   2.35000000E+002   9.93203037E-001   7.21483065E-001   9.93202487E-001
   2.40000000E+002   9.93628636E-001   7.21483670E-001   9.93628140E-001
   2.45000000E+002   9.94200099E-001   7.21484203E-001   9.94199651E-001
