# ./jetvheto -in n3lo-fixed-order/H125-LHC13-R04-heft-xmur100-xmuf100-log.fxd -xQ 1.00 -out benchmarks-n3lo-smallR/H125-LHC13-R04-heft-xmur100-xmuf100-xQ100-NNLO+NNLLa.res -scheme a -order 2 -ptmax 500.01 -fixed_order 2
# process = H    
# collider = pp   
# rts =  13000.000
# M   =    125.000
# muR =    125.000
# muF =    125.000
# Q   =    125.000
# p   =      5.000
# include_c1_squared =   F
# loop_mass  = none
# alphas(MZ) =    0.11800
# alphas(M) =    0.11264
# alphas(muR) =    0.11264
# Rjet =      0.400
# order = NNLL
# pdf name and set = PDF4LHC15_nnlo_mc.LHgrid,    0
# matching scheme = a
# total cross sections [nb] at LO, NLOdiff, NNLOdiff, N3LOdiff =     0.012945    0.016716    0.010146    0.003834
#----------------------------------------------------------------------
# the lines that follow give the jet-veto efficiencies as a function of pt
#         pt            matched eff      resummed eff     fixed-order eff
   2.00000000E+001   5.19067240E-001   5.76765964E-001   5.03121755E-001
   2.50000000E+001   6.13367236E-001   6.67091964E-001   5.84489186E-001
   3.00000000E+001   6.86562608E-001   7.30855913E-001   6.47024325E-001
   3.50000000E+001   7.43820932E-001   7.75533258E-001   6.96432698E-001
   4.00000000E+001   7.89199707E-001   8.06393501E-001   7.36537087E-001
   4.50000000E+001   8.25240656E-001   8.27120819E-001   7.69498888E-001
   5.00000000E+001   8.54103537E-001   8.40344113E-001   7.97057559E-001
   5.50000000E+001   8.77238890E-001   8.47977876E-001   8.20296043E-001
   6.00000000E+001   8.95938851E-001   8.51429224E-001   8.40179538E-001
   6.50000000E+001   9.11056496E-001   8.51753686E-001   8.57311575E-001
   7.00000000E+001   9.23173288E-001   8.49765071E-001   8.72069843E-001
   7.50000000E+001   9.32982307E-001   8.46099418E-001   8.84956099E-001
   8.00000000E+001   9.40900192E-001   8.41263815E-001   8.96237121E-001
   8.50000000E+001   9.47238012E-001   8.35666234E-001   9.06102675E-001
   9.00000000E+001   9.52446291E-001   8.29636911E-001   9.14880120E-001
   9.50000000E+001   9.56635764E-001   8.23439459E-001   9.22604114E-001
   1.00000000E+002   9.60082246E-001   8.17282837E-001   9.29473021E-001
   1.05000000E+002   9.62958523E-001   8.11327262E-001   9.35603161E-001
   1.10000000E+002   9.65361299E-001   8.05689281E-001   9.41053390E-001
   1.15000000E+002   9.67474325E-001   8.00448028E-001   9.45975962E-001
   1.20000000E+002   9.69317860E-001   7.95649447E-001   9.50380922E-001
   1.25000000E+002   9.70983139E-001   7.91312387E-001   9.54354081E-001
   1.30000000E+002   9.72501884E-001   7.87434477E-001   9.57933958E-001
   1.35000000E+002   9.73938440E-001   7.83997780E-001   9.61195880E-001
   1.40000000E+002   9.75244654E-001   7.80973889E-001   9.64110237E-001
   1.45000000E+002   9.76538656E-001   7.78328222E-001   9.66811003E-001
   1.50000000E+002   9.77715933E-001   7.76023431E-001   9.69216654E-001
   1.55000000E+002   9.78856520E-001   7.74021860E-001   9.71425199E-001
   1.60000000E+002   9.79963638E-001   7.72287248E-001   9.73459094E-001
   1.65000000E+002   9.81002548E-001   7.70785851E-001   9.75301855E-001
   1.70000000E+002   9.82014877E-001   7.69486984E-001   9.77010596E-001
   1.75000000E+002   9.82954758E-001   7.68363233E-001   9.78554343E-001
   1.80000000E+002   9.83867620E-001   7.67390431E-001   9.79990696E-001
   1.85000000E+002   9.84718836E-001   7.66547487E-001   9.81296426E-001
   1.90000000E+002   9.85531406E-001   7.65816131E-001   9.82503927E-001
   1.95000000E+002   9.86322158E-001   7.65180623E-001   9.83638287E-001
   2.00000000E+002   9.87059442E-001   7.64627456E-001   9.84675207E-001
   2.05000000E+002   9.87761685E-001   7.64145066E-001   9.85639085E-001
   2.10000000E+002   9.88416650E-001   7.63723574E-001   9.86523019E-001
   2.15000000E+002   9.89023832E-001   7.63354545E-001   9.87330981E-001
   2.20000000E+002   9.89608757E-001   7.63030779E-001   9.88092219E-001
   2.25000000E+002   9.90156308E-001   7.62746128E-001   9.88794983E-001
   2.30000000E+002   9.90675492E-001   7.62495340E-001   9.89451061E-001
   2.35000000E+002   9.91179280E-001   7.62273922E-001   9.90075806E-001
   2.40000000E+002   9.91637165E-001   7.62078027E-001   9.90640855E-001
   2.45000000E+002   9.92076191E-001   7.61904355E-001   9.91174955E-001
