# ./jetvheto -in n3lo-fixed-order/H125-LHC13-R04-mb-475-mt-1725-xmur025-xmuf025-log.fxd -xQ 0.25 -out benchmarks-n3lo-smallR/H125-LHC13-R04-mb-475-mt-1725-xmur025-xmuf025-xQ025-NNLO+NNLLa.R0-1.0.res -scheme a -order 2 -ptmax 500.01 -fixed_order 2 -small-r -loop-mass t+b -R0 1.0
# process = H    
# collider = pp   
# rts =  13000.000
# M   =    125.000
# muR =     31.250
# muF =     31.250
# Q   =     31.250
# p   =      5.000
# include_c1_squared =   F
# loop_mass  = t+b 
# alphas(MZ) =    0.11800
# alphas(M) =    0.11264
# alphas(muR) =    0.14091
# Rjet =      0.400
# order = NNLL
# pdf name and set = PDF4LHC15_nnlo_mc.LHgrid,    0
# matching scheme = a
# total cross sections [nb] at LO, NLOdiff, NNLOdiff, N3LOdiff =     0.016156    0.025248    0.006043   -0.002471
#----------------------------------------------------------------------
# the lines that follow give the jet-veto efficiencies as a function of pt
#         pt            matched eff      resummed eff     fixed-order eff
   2.00000000E+001   4.21318432E-001   4.21002164E-001   4.14362726E-001
   2.50000000E+001   5.07267761E-001   4.80654658E-001   5.03382423E-001
   3.00000000E+001   5.77001940E-001   5.16065627E-001   5.74877333E-001
   3.50000000E+001   6.34785044E-001   5.35463764E-001   6.33647351E-001
   4.00000000E+001   6.82884878E-001   5.45695633E-001   6.82274657E-001
   4.50000000E+001   7.23419535E-001   5.51116277E-001   7.23088176E-001
   5.00000000E+001   7.57729428E-001   5.54073120E-001   7.57541843E-001
   5.50000000E+001   7.86935112E-001   5.55749811E-001   7.86825388E-001
   6.00000000E+001   8.12056325E-001   5.56739401E-001   8.11989633E-001
   6.50000000E+001   8.33761319E-001   5.57345881E-001   8.33719045E-001
   7.00000000E+001   8.52745145E-001   5.57730481E-001   8.52717321E-001
   7.50000000E+001   8.69024095E-001   5.57981930E-001   8.69004953E-001
   8.00000000E+001   8.83484360E-001   5.58150847E-001   8.83470860E-001
   8.50000000E+001   8.96220548E-001   5.58267092E-001   8.96210714E-001
   9.00000000E+001   9.07408559E-001   5.58348831E-001   9.07401203E-001
   9.50000000E+001   9.17169537E-001   5.58407425E-001   9.17163878E-001
   1.00000000E+002   9.25856386E-001   5.58450162E-001   9.25851957E-001
   1.05000000E+002   9.33644224E-001   5.58481825E-001   9.33640696E-001
   1.10000000E+002   9.40537855E-001   5.58505619E-001   9.40535003E-001
   1.15000000E+002   9.46744595E-001   5.58523733E-001   9.46742262E-001
   1.20000000E+002   9.52307614E-001   5.58537687E-001   9.52305676E-001
   1.25000000E+002   9.57223138E-001   5.58548553E-001   9.57221507E-001
   1.30000000E+002   9.61678843E-001   5.58557100E-001   9.61677464E-001
   1.35000000E+002   9.65676964E-001   5.58563884E-001   9.65675792E-001
   1.40000000E+002   9.69248994E-001   5.58569317E-001   9.69247988E-001
   1.45000000E+002   9.72543145E-001   5.58573701E-001   9.72542277E-001
   1.50000000E+002   9.75472667E-001   5.58577265E-001   9.75471914E-001
   1.55000000E+002   9.78121725E-001   5.58580183E-001   9.78121067E-001
   1.60000000E+002   9.80540477E-001   5.58582587E-001   9.80539901E-001
   1.65000000E+002   9.82722618E-001   5.58584580E-001   9.82722112E-001
   1.70000000E+002   9.84675169E-001   5.58586241E-001   9.84674723E-001
   1.75000000E+002   9.86453501E-001   5.58587634E-001   9.86453107E-001
   1.80000000E+002   9.88053023E-001   5.58588807E-001   9.88052673E-001
   1.85000000E+002   9.89486139E-001   5.58589800E-001   9.89485827E-001
   1.90000000E+002   9.90818846E-001   5.58590644E-001   9.90818567E-001
   1.95000000E+002   9.92035153E-001   5.58591365E-001   9.92034904E-001
   2.00000000E+002   9.93123156E-001   5.58591983E-001   9.93122932E-001
   2.05000000E+002   9.94130175E-001   5.58592515E-001   9.94129974E-001
   2.10000000E+002   9.95048185E-001   5.58592975E-001   9.95048004E-001
   2.15000000E+002   9.95839949E-001   5.58593373E-001   9.95839785E-001
   2.20000000E+002   9.96593049E-001   5.58593720E-001   9.96592901E-001
   2.25000000E+002   9.97271276E-001   5.58594022E-001   9.97271142E-001
   2.30000000E+002   9.97868097E-001   5.58594286E-001   9.97867975E-001
   2.35000000E+002   9.98424483E-001   5.58594519E-001   9.98424373E-001
   2.40000000E+002   9.98910879E-001   5.58594723E-001   9.98910778E-001
   2.45000000E+002   9.99350726E-001   5.58594903E-001   9.99350634E-001
