# ./jetvheto -in n3lo-fixed-order/H125-LHC13-R04-heft-xmur025-xmuf025-log.fxd -xQ 0.50 -out benchmarks-n3lo-smallR/H125-LHC13-R04-heft-xmur025-xmuf025-xQ050-NNLO+NNLLb.R0-1.5.res -scheme b -order 2 -ptmax 500.01 -fixed_order 2 -small-r -R0 1.5
# process = H    
# collider = pp   
# rts =  13000.000
# M   =    125.000
# muR =     31.250
# muF =     31.250
# Q   =     62.500
# p   =      5.000
# include_c1_squared =   F
# loop_mass  = none
# alphas(MZ) =    0.11800
# alphas(M) =    0.11264
# alphas(muR) =    0.14091
# Rjet =      0.400
# order = NNLL
# pdf name and set = PDF4LHC15_nnlo_mc.LHgrid,    0
# matching scheme = b
# total cross sections [nb] at LO, NLOdiff, NNLOdiff, N3LOdiff =     0.017443    0.024066    0.006043   -0.002471
#----------------------------------------------------------------------
# the lines that follow give the jet-veto efficiencies as a function of pt
#         pt            matched eff      resummed eff     fixed-order eff
   2.00000000E+001   4.55379695E-001   5.06332652E-001   3.38373752E-001
   2.50000000E+001   5.31092407E-001   5.72745200E-001   4.40845726E-001
   3.00000000E+001   5.92176842E-001   6.18827870E-001   5.22470871E-001
   3.50000000E+001   6.42657628E-001   6.50364889E-001   5.88924653E-001
   4.00000000E+001   6.84689881E-001   6.71493333E-001   6.43446572E-001
   4.50000000E+001   7.20451571E-001   6.85197323E-001   6.88991055E-001
   5.00000000E+001   7.51025523E-001   6.93721716E-001   7.27165838E-001
   5.50000000E+001   7.77648314E-001   6.98780344E-001   7.59644412E-001
   6.00000000E+001   8.01116997E-001   7.01638987E-001   7.87563277E-001
   6.50000000E+001   8.21723671E-001   7.03178388E-001   8.11517659E-001
   7.00000000E+001   8.40033594E-001   7.03968852E-001   8.32324488E-001
   7.50000000E+001   8.56088580E-001   7.04354132E-001   8.50233286E-001
   8.00000000E+001   8.70537422E-001   7.04529186E-001   8.66058653E-001
   8.50000000E+001   8.83374099E-001   7.04599107E-001   8.79919833E-001
   9.00000000E+001   8.94787267E-001   7.04618595E-001   8.92099610E-001
   9.50000000E+001   9.04877562E-001   7.04615322E-001   9.02767336E-001
   1.00000000E+002   9.13949890E-001   7.04602913E-001   9.12278160E-001
   1.05000000E+002   9.22078921E-001   7.04587852E-001   9.20743020E-001
   1.10000000E+002   9.29381024E-001   7.04573063E-001   9.28304481E-001
   1.15000000E+002   9.35942093E-001   7.04559721E-001   9.35067665E-001
   1.20000000E+002   9.41795802E-001   7.04548177E-001   9.41080155E-001
   1.25000000E+002   9.46969128E-001   7.04538404E-001   9.46379246E-001
   1.30000000E+002   9.51720524E-001   7.04530225E-001   9.51231025E-001
   1.35000000E+002   9.56016225E-001   7.04523420E-001   9.55607464E-001
   1.40000000E+002   9.59837875E-001   7.04517770E-001   9.59494501E-001
   1.45000000E+002   9.63357730E-001   7.04513078E-001   9.63067652E-001
   1.50000000E+002   9.66484147E-001   7.04509175E-001   9.66237800E-001
   1.55000000E+002   9.69328342E-001   7.04505921E-001   9.69118085E-001
   1.60000000E+002   9.71931412E-001   7.04503200E-001   9.71751113E-001
   1.65000000E+002   9.74312640E-001   7.04500917E-001   9.74157344E-001
   1.70000000E+002   9.76446415E-001   7.04498994E-001   9.76312085E-001
   1.75000000E+002   9.78417828E-001   7.04497369E-001   9.78301175E-001
   1.80000000E+002   9.80198768E-001   7.04495990E-001   9.80097082E-001
   1.85000000E+002   9.81783643E-001   7.04494817E-001   9.81694686E-001
   1.90000000E+002   9.83273760E-001   7.04493814E-001   9.83195673E-001
   1.95000000E+002   9.84640528E-001   7.04492954E-001   9.84571761E-001
   2.00000000E+002   9.85868012E-001   7.04492214E-001   9.85807264E-001
   2.05000000E+002   9.87026476E-001   7.04491575E-001   9.86972654E-001
   2.10000000E+002   9.88100245E-001   7.04491022E-001   9.88052425E-001
   2.15000000E+002   9.89045211E-001   7.04490541E-001   9.89002610E-001
   2.20000000E+002   9.89950542E-001   7.04490123E-001   9.89912492E-001
   2.25000000E+002   9.90779701E-001   7.04489757E-001   9.90745633E-001
   2.30000000E+002   9.91515314E-001   7.04489436E-001   9.91484738E-001
   2.35000000E+002   9.92212345E-001   7.04489154E-001   9.92184843E-001
   2.40000000E+002   9.92843293E-001   7.04488905E-001   9.92818501E-001
   2.45000000E+002   9.93435382E-001   7.04488686E-001   9.93412987E-001
