# ./jetvheto -in n3lo-fixed-order/H125-LHC13-R04-mb-0-mt-1725-xmur100-xmuf100-log.fxd -xQ 0.125 -out benchmarks-n3lo-smallR/H125-LHC13-R04-mb-0-mt-1725-xmur100-xmuf100-xQ125-N3LO+NNLLb.R0-1.5.res -scheme b -order 2 -ptmax 500.01 -small-r -fixed_order 3 -loop-mass t -R0 1.5
# process = H    
# collider = pp   
# rts =  13000.000
# M   =    125.000
# muR =    125.000
# muF =    125.000
# Q   =     15.625
# p   =      5.000
# include_c1_squared =   F
# loop_mass  = t   
# alphas(MZ) =    0.11800
# alphas(M) =    0.11264
# alphas(muR) =    0.11264
# Rjet =      0.400
# order = NNLL
# pdf name and set = PDF4LHC15_nnlo_mc.LHgrid,    0
# matching scheme = b
# total cross sections [nb] at LO, NLOdiff, NNLOdiff, N3LOdiff =     0.013801    0.017514    0.010146    0.003834
#----------------------------------------------------------------------
# the lines that follow give the jet-veto efficiencies as a function of pt
#         pt            matched eff      resummed eff     fixed-order eff
   2.00000000E+001   4.25033338E-001   5.19024463E-001   4.21593782E-001
   2.50000000E+001   5.14969115E-001   5.34763949E-001   5.13960990E-001
   3.00000000E+001   5.91323284E-001   5.39883689E-001   5.91015610E-001
   3.50000000E+001   6.50752846E-001   5.41800989E-001   6.50645918E-001
   4.00000000E+001   6.98876685E-001   5.42616583E-001   6.98836983E-001
   4.50000000E+001   7.37943416E-001   5.43001204E-001   7.37928057E-001
   5.00000000E+001   7.71036010E-001   5.43198180E-001   7.71030473E-001
   5.50000000E+001   7.99277116E-001   5.43306019E-001   7.99275639E-001
   6.00000000E+001   8.23059618E-001   5.43368387E-001   8.23059681E-001
   6.50000000E+001   8.44243033E-001   5.43406147E-001   8.44243758E-001
   7.00000000E+001   8.62069948E-001   5.43429911E-001   8.62070819E-001
   7.50000000E+001   8.76924664E-001   5.43445373E-001   8.76925464E-001
   8.00000000E+001   8.89966452E-001   5.43455727E-001   8.89967148E-001
   8.50000000E+001   9.01727886E-001   5.43462836E-001   9.01728487E-001
   9.00000000E+001   9.11747258E-001   5.43467827E-001   9.11747759E-001
   9.50000000E+001   9.20909192E-001   5.43471402E-001   9.20909613E-001
   1.00000000E+002   9.28579192E-001   5.43474007E-001   9.28579537E-001
   1.05000000E+002   9.35454341E-001   5.43475935E-001   9.35454626E-001
   1.10000000E+002   9.41628432E-001   5.43477384E-001   9.41628668E-001
   1.15000000E+002   9.47176937E-001   5.43478487E-001   9.47177133E-001
   1.20000000E+002   9.51996723E-001   5.43479336E-001   9.51996886E-001
   1.25000000E+002   9.56173798E-001   5.43479997E-001   9.56173934E-001
   1.30000000E+002   9.60356190E-001   5.43480517E-001   9.60356305E-001
   1.35000000E+002   9.64008343E-001   5.43480930E-001   9.64008440E-001
   1.40000000E+002   9.67091913E-001   5.43481260E-001   9.67091995E-001
   1.45000000E+002   9.70034829E-001   5.43481527E-001   9.70034899E-001
   1.50000000E+002   9.72527438E-001   5.43481744E-001   9.72527497E-001
   1.55000000E+002   9.75212404E-001   5.43481921E-001   9.75212455E-001
   1.60000000E+002   9.77041063E-001   5.43482068E-001   9.77041107E-001
   1.65000000E+002   9.78998012E-001   5.43482189E-001   9.78998050E-001
   1.70000000E+002   9.80709563E-001   5.43482290E-001   9.80709596E-001
   1.75000000E+002   9.82370595E-001   5.43482374E-001   9.82370623E-001
   1.80000000E+002   9.83895172E-001   5.43482446E-001   9.83895197E-001
   1.85000000E+002   9.85264501E-001   5.43482506E-001   9.85264523E-001
   1.90000000E+002   9.86225447E-001   5.43482557E-001   9.86225466E-001
   1.95000000E+002   9.87456479E-001   5.43482601E-001   9.87456496E-001
   2.00000000E+002   9.88501091E-001   5.43482639E-001   9.88501106E-001
   2.05000000E+002   9.89399952E-001   5.43482671E-001   9.89399966E-001
   2.10000000E+002   9.90204103E-001   5.43482699E-001   9.90204115E-001
   2.15000000E+002   9.91095709E-001   5.43482723E-001   9.91095719E-001
   2.20000000E+002   9.91741796E-001   5.43482744E-001   9.91741805E-001
   2.25000000E+002   9.92422301E-001   5.43482763E-001   9.92422310E-001
   2.30000000E+002   9.93056594E-001   5.43482779E-001   9.93056602E-001
   2.35000000E+002   9.93643496E-001   5.43482793E-001   9.93643503E-001
   2.40000000E+002   9.94041759E-001   5.43482805E-001   9.94041766E-001
   2.45000000E+002   9.94575388E-001   5.43482816E-001   9.94575393E-001
