# ./jetvheto -in n3lo-fixed-order/H125-LHC13-R04-mb-0-mt-1725-xmur025-xmuf050-log.fxd -xQ 0.0625 -out benchmarks-n3lo-smallR/H125-LHC13-R04-mb-0-mt-1725-xmur025-xmuf050-xQ0625-N3LO+NNLLa.R0-1.0.res -scheme a -order 2 -ptmax 500.01 -small-r -fixed_order 3 -loop-mass t -R0 1.0
# process = H    
# collider = pp   
# rts =  13000.000
# M   =    125.000
# muR =     31.250
# muF =     62.500
# Q   =      7.812
# p   =      5.000
# include_c1_squared =   F
# loop_mass  = t   
# alphas(MZ) =    0.11800
# alphas(M) =    0.11264
# alphas(muR) =    0.14091
# Rjet =      0.400
# order = NNLL
# pdf name and set = PDF4LHC15_nnlo_mc.LHgrid,    0
# matching scheme = a
# total cross sections [nb] at LO, NLOdiff, NNLOdiff, N3LOdiff =     0.019855    0.024744    0.005009   -0.002663
#----------------------------------------------------------------------
# the lines that follow give the jet-veto efficiencies as a function of pt
#         pt            matched eff      resummed eff     fixed-order eff
   2.00000000E+001   4.64416561E-001   3.57323470E-002   4.64441433E-001
   2.50000000E+001   5.46983727E-001   3.58883293E-002   5.46982713E-001
   3.00000000E+001   6.21747928E-001   3.59340397E-002   6.21747969E-001
   3.50000000E+001   6.80660877E-001   3.59505694E-002   6.80660873E-001
   4.00000000E+001   7.24684694E-001   3.59575062E-002   7.24684346E-001
   4.50000000E+001   7.64688723E-001   3.59607581E-002   7.64688533E-001
   5.00000000E+001   7.95840981E-001   3.59624187E-002   7.95840800E-001
   5.50000000E+001   8.23173275E-001   3.59633264E-002   8.23173148E-001
   6.00000000E+001   8.45053013E-001   3.59638510E-002   8.45052906E-001
   6.50000000E+001   8.66318788E-001   3.59641684E-002   8.66318719E-001
   7.00000000E+001   8.81329904E-001   3.59643681E-002   8.81329841E-001
   7.50000000E+001   8.95119614E-001   3.59644980E-002   8.95119563E-001
   8.00000000E+001   9.07814617E-001   3.59645850E-002   9.07814578E-001
   8.50000000E+001   9.19132266E-001   3.59646447E-002   9.19132236E-001
   9.00000000E+001   9.29115000E-001   3.59646867E-002   9.29114976E-001
   9.50000000E+001   9.36524656E-001   3.59647167E-002   9.36524636E-001
   1.00000000E+002   9.43963465E-001   3.59647386E-002   9.43963449E-001
   1.05000000E+002   9.49378237E-001   3.59647548E-002   9.49378223E-001
   1.10000000E+002   9.54478264E-001   3.59647669E-002   9.54478252E-001
   1.15000000E+002   9.59539134E-001   3.59647762E-002   9.59539125E-001
   1.20000000E+002   9.64105620E-001   3.59647833E-002   9.64105612E-001
   1.25000000E+002   9.67624328E-001   3.59647889E-002   9.67624322E-001
   1.30000000E+002   9.70595365E-001   3.59647932E-002   9.70595359E-001
   1.35000000E+002   9.73817649E-001   3.59647967E-002   9.73817644E-001
   1.40000000E+002   9.76758241E-001   3.59647995E-002   9.76758237E-001
   1.45000000E+002   9.79225061E-001   3.59648017E-002   9.79225058E-001
   1.50000000E+002   9.80840247E-001   3.59648035E-002   9.80840244E-001
   1.55000000E+002   9.83173625E-001   3.59648050E-002   9.83173622E-001
   1.60000000E+002   9.85240372E-001   3.59648063E-002   9.85240369E-001
   1.65000000E+002   9.86018477E-001   3.59648073E-002   9.86018475E-001
   1.70000000E+002   9.87596099E-001   3.59648081E-002   9.87596097E-001
   1.75000000E+002   9.89070566E-001   3.59648088E-002   9.89070565E-001
   1.80000000E+002   9.90030167E-001   3.59648094E-002   9.90030165E-001
   1.85000000E+002   9.90904045E-001   3.59648099E-002   9.90904044E-001
   1.90000000E+002   9.91918162E-001   3.59648104E-002   9.91918160E-001
   1.95000000E+002   9.92868748E-001   3.59648107E-002   9.92868747E-001
   2.00000000E+002   9.93682267E-001   3.59648111E-002   9.93682266E-001
   2.05000000E+002   9.94218009E-001   3.59648113E-002   9.94218008E-001
   2.10000000E+002   9.94840712E-001   3.59648116E-002   9.94840712E-001
   2.15000000E+002   9.95209113E-001   3.59648118E-002   9.95209113E-001
   2.20000000E+002   9.96061093E-001   3.59648119E-002   9.96061092E-001
   2.25000000E+002   9.96292501E-001   3.59648121E-002   9.96292501E-001
   2.30000000E+002   9.96699807E-001   3.59648122E-002   9.96699807E-001
   2.35000000E+002   9.96933235E-001   3.59648124E-002   9.96933235E-001
   2.40000000E+002   9.97250906E-001   3.59648125E-002   9.97250905E-001
   2.45000000E+002   9.97727499E-001   3.59648126E-002   9.97727498E-001
