# ./jetvheto -in n3lo-fixed-order/H125-LHC13-R04-mb-475-mt-1725-xmur100-xmuf050-log.fxd -xQ 0.5 -out benchmarks-n3lo-smallR/H125-LHC13-R04-mb-475-mt-1725-xmur100-xmuf050-xQ050-NNLO+NNLLa.res -scheme a -order 2 -ptmax 500.01 -fixed_order 2 -loop-mass t+b
# process = H    
# collider = pp   
# rts =  13000.000
# M   =    125.000
# muR =    125.000
# muF =     62.500
# Q   =     62.500
# p   =      5.000
# include_c1_squared =   F
# loop_mass  = t+b 
# alphas(MZ) =    0.11800
# alphas(M) =    0.11264
# alphas(muR) =    0.11264
# Rjet =      0.400
# order = NNLL
# pdf name and set = PDF4LHC15_nnlo_mc.LHgrid,    0
# matching scheme = a
# total cross sections [nb] at LO, NLOdiff, NNLOdiff, N3LOdiff =     0.011575    0.016866    0.010424    0.004163
#----------------------------------------------------------------------
# the lines that follow give the jet-veto efficiencies as a function of pt
#         pt            matched eff      resummed eff     fixed-order eff
   2.00000000E+001   4.55193639E-001   4.82949573E-001   4.89064583E-001
   2.50000000E+001   5.46052630E-001   5.64917764E-001   5.70034720E-001
   3.00000000E+001   6.17938596E-001   6.23811448E-001   6.32942870E-001
   3.50000000E+001   6.75186527E-001   6.65607564E-001   6.83258386E-001
   4.00000000E+001   7.20977171E-001   6.94771953E-001   7.24239561E-001
   4.50000000E+001   7.58193859E-001   7.14652551E-001   7.58461479E-001
   5.00000000E+001   7.88604035E-001   7.27839152E-001   7.87253375E-001
   5.50000000E+001   8.13699583E-001   7.36352543E-001   8.11661801E-001
   6.00000000E+001   8.34777560E-001   7.41731418E-001   8.32610002E-001
   6.50000000E+001   8.52685591E-001   7.45087069E-001   8.50676857E-001
   7.00000000E+001   8.68191641E-001   7.47177623E-001   8.66457347E-001
   7.50000000E+001   8.81593450E-001   7.48492248E-001   8.80153278E-001
   8.00000000E+001   8.93403274E-001   7.49333564E-001   8.92232619E-001
   8.50000000E+001   9.03874013E-001   7.49884151E-001   9.02932418E-001
   9.00000000E+001   9.13077574E-001   7.50253528E-001   9.12323320E-001
   9.50000000E+001   9.21237218E-001   7.50507564E-001   9.20632683E-001
   1.00000000E+002   9.28560028E-001   7.50686429E-001   9.28074069E-001
   1.05000000E+002   9.35108595E-001   7.50815115E-001   9.34716121E-001
   1.10000000E+002   9.40940632E-001   7.50909521E-001   9.40622008E-001
   1.15000000E+002   9.46221348E-001   7.50979996E-001   9.45961129E-001
   1.20000000E+002   9.50958269E-001   7.51033430E-001   9.50744483E-001
   1.25000000E+002   9.55277101E-001   7.51074510E-001   9.55100393E-001
   1.30000000E+002   9.59137253E-001   7.51106486E-001   9.58990329E-001
   1.35000000E+002   9.62632934E-001   7.51131657E-001   9.62510083E-001
   1.40000000E+002   9.65829117E-001   7.51151672E-001   9.65725821E-001
   1.45000000E+002   9.68721264E-001   7.51167733E-001   9.68633949E-001
   1.50000000E+002   9.71372068E-001   7.51180732E-001   9.71297891E-001
   1.55000000E+002   9.73780858E-001   7.51191332E-001   9.73717539E-001
   1.60000000E+002   9.75971743E-001   7.51200038E-001   9.75917445E-001
   1.65000000E+002   9.77960179E-001   7.51207237E-001   9.77913415E-001
   1.70000000E+002   9.79772225E-001   7.51213225E-001   9.79731786E-001
   1.75000000E+002   9.81452809E-001   7.51218234E-001   9.81417700E-001
   1.80000000E+002   9.82965772E-001   7.51222448E-001   9.82935177E-001
   1.85000000E+002   9.84374237E-001   7.51226009E-001   9.84347479E-001
   1.90000000E+002   9.85657735E-001   7.51229034E-001   9.85634255E-001
   1.95000000E+002   9.86832588E-001   7.51231614E-001   9.86811918E-001
   2.00000000E+002   9.87906565E-001   7.51233825E-001   9.87888312E-001
   2.05000000E+002   9.88897791E-001   7.51235726E-001   9.88881626E-001
   2.10000000E+002   9.89789465E-001   7.51237367E-001   9.89775108E-001
   2.15000000E+002   9.90634492E-001   7.51238789E-001   9.90621707E-001
   2.20000000E+002   9.91411804E-001   7.51240025E-001   9.91400389E-001
   2.25000000E+002   9.92103963E-001   7.51241103E-001   9.92093747E-001
   2.30000000E+002   9.92769850E-001   7.51242046E-001   9.92760685E-001
   2.35000000E+002   9.93359437E-001   7.51242873E-001   9.93351196E-001
   2.40000000E+002   9.93912396E-001   7.51243602E-001   9.93904970E-001
   2.45000000E+002   9.94411180E-001   7.51244244E-001   9.94404475E-001
