# ./jetvheto -in n3lo-fixed-order/H125-LHC13-R04-mb-475-mt-1725-xmur200-xmuf200-log.fxd -xQ 0.25 -out benchmarks-n3lo-smallR/H125-LHC13-R04-mb-475-mt-1725-xmur200-xmuf200-xQ025-N3LO+NNLLb.R0-1.0.res -scheme b -order 2 -ptmax 500.01 -fixed_order 3 -small-r -loop-mass t+b -R0 1.0
# process = H    
# collider = pp   
# rts =  13000.000
# M   =    125.000
# muR =    250.000
# muF =    250.000
# Q   =     31.250
# p   =      5.000
# include_c1_squared =   F
# loop_mass  = t+b 
# alphas(MZ) =    0.11800
# alphas(M) =    0.11264
# alphas(muR) =    0.10244
# Rjet =      0.400
# order = NNLL
# pdf name and set = PDF4LHC15_nnlo_mc.LHgrid,    0
# matching scheme = b
# total cross sections [nb] at LO, NLOdiff, NNLOdiff, N3LOdiff =     0.010658    0.014649    0.010464    0.005358
#----------------------------------------------------------------------
# the lines that follow give the jet-veto efficiencies as a function of pt
#         pt            matched eff      resummed eff     fixed-order eff
   2.00000000E+001   4.16545235E-001   5.66293843E-001   3.93395559E-001
   2.50000000E+001   5.03510467E-001   6.38085104E-001   4.92532833E-001
   3.00000000E+001   5.73436311E-001   6.79959285E-001   5.68240268E-001
   3.50000000E+001   6.32393438E-001   7.02615996E-001   6.29965429E-001
   4.00000000E+001   6.81391438E-001   7.14473548E-001   6.80230765E-001
   4.50000000E+001   7.21400155E-001   7.20726411E-001   7.20815417E-001
   5.00000000E+001   7.56761256E-001   7.24128106E-001   7.56465253E-001
   5.50000000E+001   7.85632149E-001   7.26054089E-001   7.85472917E-001
   6.00000000E+001   8.10336660E-001   7.27189790E-001   8.10248405E-001
   6.50000000E+001   8.31390226E-001   7.27885436E-001   8.31339503E-001
   7.00000000E+001   8.50483559E-001   7.28326429E-001   8.50454712E-001
   7.50000000E+001   8.66314249E-001   7.28614685E-001   8.66297011E-001
   8.00000000E+001   8.80116131E-001   7.28808299E-001   8.80105627E-001
   8.50000000E+001   8.92408584E-001   7.28941527E-001   8.92402216E-001
   9.00000000E+001   9.02924478E-001   7.29035201E-001   9.02920500E-001
   9.50000000E+001   9.12751779E-001   7.29102347E-001   9.12749431E-001
   1.00000000E+002   9.21057338E-001   7.29151320E-001   9.21055914E-001
   1.05000000E+002   9.28380484E-001   7.29187602E-001   9.28379619E-001
   1.10000000E+002   9.34731617E-001   7.29214868E-001   9.34731087E-001
   1.15000000E+002   9.40750767E-001   7.29235623E-001   9.40750487E-001
   1.20000000E+002   9.46203955E-001   7.29251612E-001   9.46203839E-001
   1.25000000E+002   9.50748072E-001   7.29264063E-001   9.50748033E-001
   1.30000000E+002   9.55071382E-001   7.29273856E-001   9.55071404E-001
   1.35000000E+002   9.58784246E-001   7.29281630E-001   9.58784295E-001
   1.40000000E+002   9.62494025E-001   7.29287854E-001   9.62494103E-001
   1.45000000E+002   9.65458336E-001   7.29292877E-001   9.65458416E-001
   1.50000000E+002   9.68365757E-001   7.29296961E-001   9.68365842E-001
   1.55000000E+002   9.70956262E-001   7.29300304E-001   9.70956346E-001
   1.60000000E+002   9.73228530E-001   7.29303059E-001   9.73228609E-001
   1.65000000E+002   9.75208513E-001   7.29305343E-001   9.75208585E-001
   1.70000000E+002   9.77297039E-001   7.29307246E-001   9.77297108E-001
   1.75000000E+002   9.79003685E-001   7.29308842E-001   9.79003749E-001
   1.80000000E+002   9.80846522E-001   7.29310186E-001   9.80846583E-001
   1.85000000E+002   9.82182363E-001   7.29311324E-001   9.82182417E-001
   1.90000000E+002   9.83533455E-001   7.29312291E-001   9.83533505E-001
   1.95000000E+002   9.84739319E-001   7.29313117E-001   9.84739364E-001
   2.00000000E+002   9.86049874E-001   7.29313826E-001   9.86049915E-001
   2.05000000E+002   9.86969392E-001   7.29314435E-001   9.86969430E-001
   2.10000000E+002   9.87844981E-001   7.29314962E-001   9.87845014E-001
   2.15000000E+002   9.88780877E-001   7.29315418E-001   9.88780907E-001
   2.20000000E+002   9.89647119E-001   7.29315815E-001   9.89647147E-001
   2.25000000E+002   9.90326836E-001   7.29316161E-001   9.90326861E-001
   2.30000000E+002   9.90979888E-001   7.29316464E-001   9.90979911E-001
   2.35000000E+002   9.91654039E-001   7.29316730E-001   9.91654060E-001
   2.40000000E+002   9.92240407E-001   7.29316964E-001   9.92240426E-001
   2.45000000E+002   9.92807619E-001   7.29317171E-001   9.92807637E-001
