# ./jetvheto -in n3lo-fixed-order/H125-LHC13-R04-mb-0-mt-1725-xmur050-xmuf100-log.fxd -xQ 0.5 -out benchmarks-n3lo-smallR/H125-LHC13-R04-mb-0-mt-1725-xmur050-xmuf100-xQ050-NNLO+NNLLb.R0-1.0.res -scheme b -order 2 -ptmax 500.01 -small-r -fixed_order 2 -loop-mass t -R0 1.0
# process = H    
# collider = pp   
# rts =  13000.000
# M   =    125.000
# muR =     62.500
# muF =    125.000
# Q   =     62.500
# p   =      5.000
# include_c1_squared =   F
# loop_mass  = t   
# alphas(MZ) =    0.11800
# alphas(M) =    0.11264
# alphas(muR) =    0.12516
# Rjet =      0.400
# order = NNLL
# pdf name and set = PDF4LHC15_nnlo_mc.LHgrid,    0
# matching scheme = b
# total cross sections [nb] at LO, NLOdiff, NNLOdiff, N3LOdiff =     0.016868    0.020591    0.008553    0.000949
#----------------------------------------------------------------------
# the lines that follow give the jet-veto efficiencies as a function of pt
#         pt            matched eff      resummed eff     fixed-order eff
   2.00000000E+001   4.43949286E-001   5.14145837E-001   3.53874297E-001
   2.50000000E+001   5.26333615E-001   5.90464229E-001   4.59741637E-001
   3.00000000E+001   5.92244784E-001   6.43775491E-001   5.41840375E-001
   3.50000000E+001   6.45857717E-001   6.80542929E-001   6.07203422E-001
   4.00000000E+001   6.90136776E-001   7.05379715E-001   6.60382096E-001
   4.50000000E+001   7.26946905E-001   7.21674035E-001   7.04076620E-001
   5.00000000E+001   7.58118496E-001   7.31983247E-001   7.40608827E-001
   5.50000000E+001   7.84708578E-001   7.38250310E-001   7.71364670E-001
   6.00000000E+001   8.07824597E-001   7.41916516E-001   7.97692154E-001
   6.50000000E+001   8.27992904E-001   7.43993326E-001   8.20307414E-001
   7.00000000E+001   8.45574635E-001   7.45142679E-001   8.39737032E-001
   7.50000000E+001   8.61171514E-001   7.45770022E-001   8.56718559E-001
   8.00000000E+001   8.74997782E-001   7.46110544E-001   8.71580854E-001
   8.50000000E+001   8.87155723E-001   7.46295371E-001   8.84514754E-001
   9.00000000E+001   8.98038425E-001   7.46396020E-001   8.95980819E-001
   9.50000000E+001   9.07660017E-001   7.46451042E-001   9.06043369E-001
   1.00000000E+002   9.16273685E-001   7.46481182E-001   9.14992506E-001
   1.05000000E+002   9.23981932E-001   7.46497647E-001   9.22958070E-001
   1.10000000E+002   9.30803157E-001   7.46506543E-001   9.29978343E-001
   1.15000000E+002   9.37005789E-001   7.46511226E-001   9.36336055E-001
   1.20000000E+002   9.42531302E-001   7.46513560E-001   9.41983453E-001
   1.25000000E+002   9.47540213E-001   7.46514591E-001   9.47088902E-001
   1.30000000E+002   9.52063039E-001   7.46514908E-001   9.51688757E-001
   1.35000000E+002   9.56146836E-001   7.46514845E-001   9.55834505E-001
   1.40000000E+002   9.59810396E-001   7.46514591E-001   9.59548192E-001
   1.45000000E+002   9.63204925E-001   7.46514253E-001   9.62983574E-001
   1.50000000E+002   9.66206565E-001   7.46513890E-001   9.66018715E-001
   1.55000000E+002   9.68982261E-001   7.46513534E-001   9.68822038E-001
   1.60000000E+002   9.71523171E-001   7.46513199E-001   9.71385869E-001
   1.65000000E+002   9.73812949E-001   7.46512894E-001   9.73694766E-001
   1.70000000E+002   9.75922981E-001   7.46512621E-001   9.75820827E-001
   1.75000000E+002   9.77809830E-001   7.46512378E-001   9.77721179E-001
   1.80000000E+002   9.79562845E-001   7.46512164E-001   9.79485619E-001
   1.85000000E+002   9.81145869E-001   7.46511976E-001   9.81078354E-001
   1.90000000E+002   9.82613606E-001   7.46511811E-001   9.82554378E-001
   1.95000000E+002   9.83976093E-001   7.46511666E-001   9.83923965E-001
   2.00000000E+002   9.85203298E-001   7.46511540E-001   9.85157277E-001
   2.05000000E+002   9.86351238E-001   7.46511429E-001   9.86310488E-001
   2.10000000E+002   9.87385455E-001   7.46511331E-001   9.87349271E-001
   2.15000000E+002   9.88322274E-001   7.46511246E-001   9.88290057E-001
   2.20000000E+002   9.89207377E-001   7.46511171E-001   9.89178618E-001
   2.25000000E+002   9.90014052E-001   7.46511105E-001   9.89988317E-001
   2.30000000E+002   9.90760172E-001   7.46511046E-001   9.90737088E-001
   2.35000000E+002   9.91464039E-001   7.46510995E-001   9.91443286E-001
   2.40000000E+002   9.92088906E-001   7.46510949E-001   9.92070208E-001
   2.45000000E+002   9.92679889E-001   7.46510908E-001   9.92663007E-001
