# ./jetvheto -in n3lo-fixed-order/H125-LHC13-R04-mb-0-mt-1725-xmur025-xmuf025-log.fxd -xQ 0.0625 -out benchmarks-n3lo-smallR/H125-LHC13-R04-mb-0-mt-1725-xmur025-xmuf025-xQ0625-NNLO+NNLLa.R0-2.0.res -scheme a -order 2 -ptmax 500.01 -small-r -fixed_order 2 -loop-mass t -R0 2.0
# process = H    
# collider = pp   
# rts =  13000.000
# M   =    125.000
# muR =     31.250
# muF =     31.250
# Q   =      7.812
# p   =      5.000
# include_c1_squared =   F
# loop_mass  = t   
# alphas(MZ) =    0.11800
# alphas(M) =    0.11264
# alphas(muR) =    0.14091
# Rjet =      0.400
# order = NNLL
# pdf name and set = PDF4LHC15_nnlo_mc.LHgrid,    0
# matching scheme = a
# total cross sections [nb] at LO, NLOdiff, NNLOdiff, N3LOdiff =     0.018140    0.025356    0.006043   -0.002471
#----------------------------------------------------------------------
# the lines that follow give the jet-veto efficiencies as a function of pt
#         pt            matched eff      resummed eff     fixed-order eff
   2.00000000E+001   4.30706048E-001   4.50950809E-002   4.30690105E-001
   2.50000000E+001   5.20568566E-001   4.52559535E-002   5.20586602E-001
   3.00000000E+001   5.91999038E-001   4.53030926E-002   5.92014950E-001
   3.50000000E+001   6.50053779E-001   4.53201384E-002   6.50064662E-001
   4.00000000E+001   6.97696194E-001   4.53272918E-002   6.97703316E-001
   4.50000000E+001   7.37298902E-001   4.53306452E-002   7.37303585E-001
   5.00000000E+001   7.70613980E-001   4.53323576E-002   7.70617108E-001
   5.50000000E+001   7.98807475E-001   4.53332936E-002   7.98809609E-001
   6.00000000E+001   8.22949222E-001   4.53338346E-002   8.22950709E-001
   6.50000000E+001   8.43750222E-001   4.53341619E-002   8.43751279E-001
   7.00000000E+001   8.61796315E-001   4.53343678E-002   8.61797081E-001
   7.50000000E+001   8.77294303E-001   4.53345018E-002   8.77294866E-001
   8.00000000E+001   8.91020033E-001   4.53345915E-002   8.91020454E-001
   8.50000000E+001   9.02977761E-001   4.53346531E-002   9.02978081E-001
   9.00000000E+001   9.13539091E-001   4.53346963E-002   9.13539336E-001
   9.50000000E+001   9.22744932E-001   4.53347273E-002   9.22745123E-001
   1.00000000E+002   9.30967776E-001   4.53347498E-002   9.30967926E-001
   1.05000000E+002   9.38296056E-001   4.53347666E-002   9.38296175E-001
   1.10000000E+002   9.44769521E-001   4.53347791E-002   9.44769617E-001
   1.15000000E+002   9.50609294E-001   4.53347887E-002   9.50609371E-001
   1.20000000E+002   9.55807693E-001   4.53347960E-002   9.55807756E-001
   1.25000000E+002   9.60372827E-001   4.53348017E-002   9.60372878E-001
   1.30000000E+002   9.64530561E-001   4.53348062E-002   9.64530604E-001
   1.35000000E+002   9.68261055E-001   4.53348098E-002   9.68261090E-001
   1.40000000E+002   9.71614812E-001   4.53348127E-002   9.71614842E-001
   1.45000000E+002   9.74679993E-001   4.53348150E-002   9.74680018E-001
   1.50000000E+002   9.77396214E-001   4.53348169E-002   9.77396235E-001
   1.55000000E+002   9.79851498E-001   4.53348184E-002   9.79851516E-001
   1.60000000E+002   9.82094930E-001   4.53348197E-002   9.82094946E-001
   1.65000000E+002   9.84128568E-001   4.53348207E-002   9.84128581E-001
   1.70000000E+002   9.85931936E-001   4.53348216E-002   9.85931948E-001
   1.75000000E+002   9.87581103E-001   4.53348223E-002   9.87581113E-001
   1.80000000E+002   9.89075759E-001   4.53348229E-002   9.89075767E-001
   1.85000000E+002   9.90409870E-001   4.53348235E-002   9.90409877E-001
   1.90000000E+002   9.91647475E-001   4.53348239E-002   9.91647482E-001
   1.95000000E+002   9.92782939E-001   4.53348243E-002   9.92782944E-001
   2.00000000E+002   9.93786257E-001   4.53348246E-002   9.93786262E-001
   2.05000000E+002   9.94721598E-001   4.53348249E-002   9.94721603E-001
   2.10000000E+002   9.95580718E-001   4.53348251E-002   9.95580722E-001
   2.15000000E+002   9.96308550E-001   4.53348253E-002   9.96308554E-001
   2.20000000E+002   9.97002027E-001   4.53348255E-002   9.97002030E-001
   2.25000000E+002   9.97641065E-001   4.53348257E-002   9.97641068E-001
   2.30000000E+002   9.98194574E-001   4.53348258E-002   9.98194576E-001
   2.35000000E+002   9.98698095E-001   4.53348259E-002   9.98698098E-001
   2.40000000E+002   9.99145084E-001   4.53348261E-002   9.99145086E-001
   2.45000000E+002   9.99563577E-001   4.53348261E-002   9.99563579E-001
