# ./jetvheto -in n3lo-fixed-order/H125-LHC13-R04-mb-475-mt-1725-xmur050-xmuf025-log.fxd -xQ 0.25 -out benchmarks-n3lo-smallR/H125-LHC13-R04-mb-475-mt-1725-xmur050-xmuf025-xQ025-N3LO+NNLLa.R0-2.0.res -scheme a -order 2 -ptmax 500.01 -fixed_order 3 -small-r -loop-mass t+b -R0 2.0
# process = H    
# collider = pp   
# rts =  13000.000
# M   =    125.000
# muR =     62.500
# muF =     31.250
# Q   =     31.250
# p   =      5.000
# include_c1_squared =   F
# loop_mass  = t+b 
# alphas(MZ) =    0.11800
# alphas(M) =    0.11264
# alphas(muR) =    0.12516
# Rjet =      0.400
# order = NNLL
# pdf name and set = PDF4LHC15_nnlo_mc.LHgrid,    0
# matching scheme = a
# total cross sections [nb] at LO, NLOdiff, NNLOdiff, N3LOdiff =     0.012926    0.020318    0.009723    0.001827
#----------------------------------------------------------------------
# the lines that follow give the jet-veto efficiencies as a function of pt
#         pt            matched eff      resummed eff     fixed-order eff
   2.00000000E+001   4.36782026E-001   4.65118140E-001   4.39805765E-001
   2.50000000E+001   5.25774837E-001   5.32028352E-001   5.27879518E-001
   3.00000000E+001   5.96531981E-001   5.71958388E-001   5.97763702E-001
   3.50000000E+001   6.53771278E-001   5.93911677E-001   6.54452868E-001
   4.00000000E+001   7.01264987E-001   6.05517438E-001   7.01663673E-001
   4.50000000E+001   7.41348541E-001   6.11673968E-001   7.41596500E-001
   5.00000000E+001   7.74817198E-001   6.15034698E-001   7.74973831E-001
   5.50000000E+001   8.03994978E-001   6.16941216E-001   8.04101557E-001
   6.00000000E+001   8.28185245E-001   6.18066729E-001   8.28256473E-001
   6.50000000E+001   8.47711630E-001   6.18756614E-001   8.47757528E-001
   7.00000000E+001   8.66020929E-001   6.19194146E-001   8.66053392E-001
   7.50000000E+001   8.81595747E-001   6.19480219E-001   8.81619018E-001
   8.00000000E+001   8.94639628E-001   6.19672403E-001   8.94656024E-001
   8.50000000E+001   9.06672259E-001   6.19804664E-001   9.06684371E-001
   9.00000000E+001   9.17176443E-001   6.19897666E-001   9.17185507E-001
   9.50000000E+001   9.25074466E-001   6.19964334E-001   9.25080912E-001
   1.00000000E+002   9.33596743E-001   6.20012961E-001   9.33601797E-001
   1.05000000E+002   9.40242080E-001   6.20048988E-001   9.40245876E-001
   1.10000000E+002   9.46947765E-001   6.20076063E-001   9.46950790E-001
   1.15000000E+002   9.52728326E-001   6.20096673E-001   9.52730725E-001
   1.20000000E+002   9.57369383E-001   6.20112550E-001   9.57371245E-001
   1.25000000E+002   9.61395802E-001   6.20124914E-001   9.61397255E-001
   1.30000000E+002   9.65486968E-001   6.20134639E-001   9.65488145E-001
   1.35000000E+002   9.68880361E-001   6.20142359E-001   9.68881306E-001
   1.40000000E+002   9.72053526E-001   6.20148540E-001   9.72054298E-001
   1.45000000E+002   9.74991978E-001   6.20153529E-001   9.74992614E-001
   1.50000000E+002   9.77507931E-001   6.20157584E-001   9.77508455E-001
   1.55000000E+002   9.79814901E-001   6.20160904E-001   9.79815336E-001
   1.60000000E+002   9.82215781E-001   6.20163640E-001   9.82216151E-001
   1.65000000E+002   9.83996057E-001   6.20165908E-001   9.83996367E-001
   1.70000000E+002   9.85488356E-001   6.20167798E-001   9.85488613E-001
   1.75000000E+002   9.87248899E-001   6.20169383E-001   9.87249121E-001
   1.80000000E+002   9.88451634E-001   6.20170718E-001   9.88451821E-001
   1.85000000E+002   9.89819219E-001   6.20171848E-001   9.89819381E-001
   1.90000000E+002   9.90908689E-001   6.20172808E-001   9.90908828E-001
   1.95000000E+002   9.92062660E-001   6.20173628E-001   9.92062781E-001
   2.00000000E+002   9.92895365E-001   6.20174332E-001   9.92895469E-001
   2.05000000E+002   9.93708738E-001   6.20174937E-001   9.93708828E-001
   2.10000000E+002   9.94443327E-001   6.20175460E-001   9.94443406E-001
   2.15000000E+002   9.95259910E-001   6.20175913E-001   9.95259980E-001
   2.20000000E+002   9.95836193E-001   6.20176307E-001   9.95836254E-001
   2.25000000E+002   9.96497521E-001   6.20176651E-001   9.96497575E-001
   2.30000000E+002   9.96975886E-001   6.20176952E-001   9.96975934E-001
   2.35000000E+002   9.97332172E-001   6.20177216E-001   9.97332214E-001
   2.40000000E+002   9.97830309E-001   6.20177449E-001   9.97830347E-001
   2.45000000E+002   9.98235716E-001   6.20177654E-001   9.98235750E-001
