# ./jetvheto -in n3lo-fixed-order/H125-LHC13-R04-mb-0-mt-1725-xmur050-xmuf050-log.fxd -xQ 0.125 -out benchmarks-n3lo-smallR/H125-LHC13-R04-mb-0-mt-1725-xmur050-xmuf050-xQ125-NNLO+NNLLa.R0-2.0.res -scheme a -order 2 -ptmax 500.01 -small-r -fixed_order 2 -loop-mass t -R0 2.0
# process = H    
# collider = pp   
# rts =  13000.000
# M   =    125.000
# muR =     62.500
# muF =     62.500
# Q   =     15.625
# p   =      5.000
# include_c1_squared =   F
# loop_mass  = t   
# alphas(MZ) =    0.11800
# alphas(M) =    0.11264
# alphas(muR) =    0.12516
# Rjet =      0.400
# order = NNLL
# pdf name and set = PDF4LHC15_nnlo_mc.LHgrid,    0
# matching scheme = a
# total cross sections [nb] at LO, NLOdiff, NNLOdiff, N3LOdiff =     0.015885    0.020561    0.008998    0.001413
#----------------------------------------------------------------------
# the lines that follow give the jet-veto efficiencies as a function of pt
#         pt            matched eff      resummed eff     fixed-order eff
   2.00000000E+001   4.68416636E-001   4.41679570E-001   4.69057413E-001
   2.50000000E+001   5.54611586E-001   4.56099258E-001   5.55288671E-001
   3.00000000E+001   6.21893845E-001   4.60798571E-001   6.22338019E-001
   3.50000000E+001   6.75602911E-001   4.62559549E-001   6.75875821E-001
   4.00000000E+001   7.19227372E-001   4.63308832E-001   7.19396295E-001
   4.50000000E+001   7.55237033E-001   4.63662220E-001   7.55344248E-001
   5.00000000E+001   7.85613421E-001   4.63843210E-001   7.85683467E-001
   5.50000000E+001   8.10973517E-001   4.63942300E-001   8.11020538E-001
   6.00000000E+001   8.32724872E-001   4.63999609E-001   8.32757246E-001
   6.50000000E+001   8.51479153E-001   4.64034306E-001   8.51501964E-001
   7.00000000E+001   8.67718259E-001   4.64056143E-001   8.67734675E-001
   7.50000000E+001   8.81751025E-001   4.64070351E-001   8.81763053E-001
   8.00000000E+001   8.94078113E-001   4.64079865E-001   8.94087077E-001
   8.50000000E+001   9.04939828E-001   4.64086398E-001   9.04946611E-001
   9.00000000E+001   9.14512113E-001   4.64090984E-001   9.14517318E-001
   9.50000000E+001   9.22899033E-001   4.64094269E-001   9.22903074E-001
   1.00000000E+002   9.30436990E-001   4.64096662E-001   9.30440166E-001
   1.05000000E+002   9.37032730E-001   4.64098435E-001   9.37035250E-001
   1.10000000E+002   9.42934638E-001   4.64099766E-001   9.42936658E-001
   1.15000000E+002   9.48230927E-001   4.64100780E-001   9.48232561E-001
   1.20000000E+002   9.52996812E-001   4.64101560E-001   9.52998144E-001
   1.25000000E+002   9.57325366E-001   4.64102167E-001   9.57326460E-001
   1.30000000E+002   9.61147744E-001   4.64102645E-001   9.61148649E-001
   1.35000000E+002   9.64601026E-001   4.64103024E-001   9.64601780E-001
   1.40000000E+002   9.67750300E-001   4.64103328E-001   9.67750932E-001
   1.45000000E+002   9.70612104E-001   4.64103573E-001   9.70612637E-001
   1.50000000E+002   9.73232111E-001   4.64103772E-001   9.73232562E-001
   1.55000000E+002   9.75586612E-001   4.64103935E-001   9.75586996E-001
   1.60000000E+002   9.77726918E-001   4.64104070E-001   9.77727247E-001
   1.65000000E+002   9.79660608E-001   4.64104181E-001   9.79660891E-001
   1.70000000E+002   9.81439358E-001   4.64104274E-001   9.81439603E-001
   1.75000000E+002   9.83053459E-001   4.64104352E-001   9.83053670E-001
   1.80000000E+002   9.84507338E-001   4.64104417E-001   9.84507522E-001
   1.85000000E+002   9.85854116E-001   4.64104473E-001   9.85854277E-001
   1.90000000E+002   9.87085272E-001   4.64104520E-001   9.87085413E-001
   1.95000000E+002   9.88208190E-001   4.64104560E-001   9.88208314E-001
   2.00000000E+002   9.89235863E-001   4.64104595E-001   9.89235973E-001
   2.05000000E+002   9.90177662E-001   4.64104624E-001   9.90177759E-001
   2.10000000E+002   9.91021190E-001   4.64104650E-001   9.91021276E-001
   2.15000000E+002   9.91819564E-001   4.64104672E-001   9.91819641E-001
   2.20000000E+002   9.92548993E-001   4.64104692E-001   9.92549062E-001
   2.25000000E+002   9.93196692E-001   4.64104709E-001   9.93196753E-001
   2.30000000E+002   9.93833042E-001   4.64104723E-001   9.93833097E-001
   2.35000000E+002   9.94380313E-001   4.64104736E-001   9.94380362E-001
   2.40000000E+002   9.94897856E-001   4.64104748E-001   9.94897900E-001
   2.45000000E+002   9.95371166E-001   4.64104758E-001   9.95371206E-001
