# ./jetvheto -in n3lo-fixed-order/H125-LHC13-R04-mb-0-mt-1725-xmur050-xmuf050-log.fxd -xQ 1.0 -out benchmarks-n3lo-smallR/H125-LHC13-R04-mb-0-mt-1725-xmur050-xmuf050-xQ100-N3LO+NNLLa.R0-1.0.res -scheme a -order 2 -ptmax 500.01 -small-r -fixed_order 3 -loop-mass t -R0 1.0
# process = H    
# collider = pp   
# rts =  13000.000
# M   =    125.000
# muR =     62.500
# muF =     62.500
# Q   =    125.000
# p   =      5.000
# include_c1_squared =   F
# loop_mass  = t   
# alphas(MZ) =    0.11800
# alphas(M) =    0.11264
# alphas(muR) =    0.12516
# Rjet =      0.400
# order = NNLL
# pdf name and set = PDF4LHC15_nnlo_mc.LHgrid,    0
# matching scheme = a
# total cross sections [nb] at LO, NLOdiff, NNLOdiff, N3LOdiff =     0.015885    0.020561    0.008998    0.001413
#----------------------------------------------------------------------
# the lines that follow give the jet-veto efficiencies as a function of pt
#         pt            matched eff      resummed eff     fixed-order eff
   2.00000000E+001   5.07062609E-001   6.16862602E-001   4.58478332E-001
   2.50000000E+001   5.89837930E-001   6.97679791E-001   5.43713081E-001
   3.00000000E+001   6.58830129E-001   7.52998483E-001   6.16066731E-001
   3.50000000E+001   7.13077426E-001   7.90446461E-001   6.73487735E-001
   4.00000000E+001   7.54431354E-001   8.15242219E-001   7.18067162E-001
   4.50000000E+001   7.90291183E-001   8.30914628E-001   7.56928051E-001
   5.00000000E+001   8.18659024E-001   8.39925028E-001   7.88284226E-001
   5.50000000E+001   8.42828979E-001   8.44041795E-001   8.15210520E-001
   6.00000000E+001   8.62366552E-001   8.44551997E-001   8.37433297E-001
   6.50000000E+001   8.80525466E-001   8.42419786E-001   8.57921417E-001
   7.00000000E+001   8.93997794E-001   8.38384582E-001   8.73778810E-001
   7.50000000E+001   9.06001105E-001   8.33016091E-001   8.87924776E-001
   8.00000000E+001   9.16821418E-001   8.26763808E-001   9.00670973E-001
   8.50000000E+001   9.26360945E-001   8.19988858E-001   9.11969998E-001
   9.00000000E+001   9.34710387E-001   8.12982000E-001   9.21929710E-001
   9.50000000E+001   9.41151843E-001   8.05974730E-001   9.29907319E-001
   1.00000000E+002   9.47403048E-001   7.99149444E-001   9.37506036E-001
   1.05000000E+002   9.52184386E-001   7.92643506E-001   9.43543485E-001
   1.10000000E+002   9.56621310E-001   7.86554141E-001   9.49085884E-001
   1.15000000E+002   9.60895091E-001   7.80943753E-001   9.54323006E-001
   1.20000000E+002   9.64762069E-001   7.75843433E-001   9.59039767E-001
   1.25000000E+002   9.67934806E-001   7.71259593E-001   9.62972878E-001
   1.30000000E+002   9.70663262E-001   7.67179682E-001   9.66366470E-001
   1.35000000E+002   9.73461347E-001   7.63577369E-001   9.69730923E-001
   1.40000000E+002   9.76036289E-001   7.60417381E-001   9.72797037E-001
   1.45000000E+002   9.78277129E-001   7.57659556E-001   9.75465608E-001
   1.50000000E+002   9.79988006E-001   7.55262009E-001   9.77552300E-001
   1.55000000E+002   9.82036410E-001   7.53183442E-001   9.79914033E-001
   1.60000000E+002   9.83881025E-001   7.51384693E-001   9.82029350E-001
   1.65000000E+002   9.84944844E-001   7.49829615E-001   9.83335000E-001
   1.70000000E+002   9.86422023E-001   7.48485638E-001   9.85013351E-001
   1.75000000E+002   9.87795892E-001   7.47323854E-001   9.86560338E-001
   1.80000000E+002   9.88830596E-001   7.46318860E-001   9.87746562E-001
   1.85000000E+002   9.89789926E-001   7.45448561E-001   9.88836616E-001
   1.90000000E+002   9.90793438E-001   7.44693870E-001   9.89952168E-001
   1.95000000E+002   9.91726255E-001   7.44038383E-001   9.90982071E-001
   2.00000000E+002   9.92552218E-001   7.43468048E-001   9.91892575E-001
   2.05000000E+002   9.93196470E-001   7.42970855E-001   9.92610981E-001
   2.10000000E+002   9.93852899E-001   7.42536555E-001   9.93331661E-001
   2.15000000E+002   9.94356664E-001   7.42156409E-001   9.93892050E-001
   2.20000000E+002   9.95105208E-001   7.41822963E-001   9.94689076E-001
   2.25000000E+002   9.95475912E-001   7.41529858E-001   9.95103439E-001
   2.30000000E+002   9.95947541E-001   7.41271666E-001   9.95613102E-001
   2.35000000E+002   9.96285080E-001   7.41043744E-001   9.95984357E-001
   2.40000000E+002   9.96660098E-001   7.40842121E-001   9.96389013E-001
   2.45000000E+002   9.97107107E-001   7.40663392E-001   9.96862033E-001
