# ./jetvheto -in n3lo-fixed-order/H125-LHC13-R04-mb-0-mt-1725-xmur050-xmuf050-log.fxd -xQ 0.0625 -out benchmarks-n3lo-smallR/H125-LHC13-R04-mb-0-mt-1725-xmur050-xmuf050-xQ0625-NNLO+NNLLb.R0-1.5.res -scheme b -order 2 -ptmax 500.01 -small-r -fixed_order 2 -loop-mass t -R0 1.5
# process = H    
# collider = pp   
# rts =  13000.000
# M   =    125.000
# muR =     62.500
# muF =     62.500
# Q   =      7.812
# p   =      5.000
# include_c1_squared =   F
# loop_mass  = t   
# alphas(MZ) =    0.11800
# alphas(M) =    0.11264
# alphas(muR) =    0.12516
# Rjet =      0.400
# order = NNLL
# pdf name and set = PDF4LHC15_nnlo_mc.LHgrid,    0
# matching scheme = b
# total cross sections [nb] at LO, NLOdiff, NNLOdiff, N3LOdiff =     0.015885    0.020561    0.008998    0.001413
#----------------------------------------------------------------------
# the lines that follow give the jet-veto efficiencies as a function of pt
#         pt            matched eff      resummed eff     fixed-order eff
   2.00000000E+001   3.38507006E-001   1.71714507E-001   3.37968833E-001
   2.50000000E+001   4.45627444E-001   1.72082057E-001   4.45490403E-001
   3.00000000E+001   5.29135894E-001   1.72189709E-001   5.29094091E-001
   3.50000000E+001   5.95864533E-001   1.72228632E-001   5.95850260E-001
   4.00000000E+001   6.50121012E-001   1.72244965E-001   6.50115846E-001
   4.50000000E+001   6.94941138E-001   1.72252621E-001   6.94939270E-001
   5.00000000E+001   7.32769781E-001   1.72256531E-001   7.32769177E-001
   5.50000000E+001   7.64362030E-001   1.72258668E-001   7.64361916E-001
   6.00000000E+001   7.91465301E-001   1.72259903E-001   7.91465371E-001
   6.50000000E+001   8.14837990E-001   1.72260651E-001   8.14838120E-001
   7.00000000E+001   8.35078512E-001   1.72261121E-001   8.35078651E-001
   7.50000000E+001   8.52570477E-001   1.72261427E-001   8.52570605E-001
   8.00000000E+001   8.67937293E-001   1.72261632E-001   8.67937405E-001
   8.50000000E+001   8.81478040E-001   1.72261772E-001   8.81478135E-001
   9.00000000E+001   8.93411748E-001   1.72261871E-001   8.93411828E-001
   9.50000000E+001   9.03867943E-001   1.72261942E-001   9.03868009E-001
   1.00000000E+002   9.13265938E-001   1.72261993E-001   9.13265993E-001
   1.05000000E+002   9.21489344E-001   1.72262031E-001   9.21489390E-001
   1.10000000E+002   9.28847804E-001   1.72262060E-001   9.28847842E-001
   1.15000000E+002   9.35451260E-001   1.72262082E-001   9.35451292E-001
   1.20000000E+002   9.41393460E-001   1.72262099E-001   9.41393487E-001
   1.25000000E+002   9.46790433E-001   1.72262112E-001   9.46790455E-001
   1.30000000E+002   9.51556315E-001   1.72262122E-001   9.51556334E-001
   1.35000000E+002   9.55862020E-001   1.72262130E-001   9.55862035E-001
   1.40000000E+002   9.59788693E-001   1.72262137E-001   9.59788706E-001
   1.45000000E+002   9.63356949E-001   1.72262142E-001   9.63356960E-001
   1.50000000E+002   9.66623730E-001   1.72262146E-001   9.66623739E-001
   1.55000000E+002   9.69559470E-001   1.72262150E-001   9.69559478E-001
   1.60000000E+002   9.72228145E-001   1.72262153E-001   9.72228153E-001
   1.65000000E+002   9.74639202E-001   1.72262155E-001   9.74639208E-001
   1.70000000E+002   9.76857075E-001   1.72262157E-001   9.76857081E-001
   1.75000000E+002   9.78869653E-001   1.72262159E-001   9.78869658E-001
   1.80000000E+002   9.80682459E-001   1.72262160E-001   9.80682463E-001
   1.85000000E+002   9.82361725E-001   1.72262161E-001   9.82361728E-001
   1.90000000E+002   9.83896827E-001   1.72262162E-001   9.83896830E-001
   1.95000000E+002   9.85296969E-001   1.72262163E-001   9.85296972E-001
   2.00000000E+002   9.86578355E-001   1.72262164E-001   9.86578358E-001
   2.05000000E+002   9.87752667E-001   1.72262165E-001   9.87752669E-001
   2.10000000E+002   9.88804447E-001   1.72262165E-001   9.88804449E-001
   2.15000000E+002   9.89799926E-001   1.72262166E-001   9.89799927E-001
   2.20000000E+002   9.90709439E-001   1.72262166E-001   9.90709441E-001
   2.25000000E+002   9.91517045E-001   1.72262166E-001   9.91517046E-001
   2.30000000E+002   9.92310500E-001   1.72262167E-001   9.92310501E-001
   2.35000000E+002   9.92992884E-001   1.72262167E-001   9.92992886E-001
   2.40000000E+002   9.93638201E-001   1.72262167E-001   9.93638203E-001
   2.45000000E+002   9.94228366E-001   1.72262167E-001   9.94228366E-001
