# ./jetvheto -in n3lo-fixed-order/H125-LHC13-R04-heft-xmur050-xmuf050-log.fxd -xQ 1.00 -out benchmarks-n3lo-smallR/H125-LHC13-R04-heft-xmur050-xmuf050-xQ100-NNLO+NNLLb.R0-1.5.res -scheme b -order 2 -ptmax 500.01 -fixed_order 2 -small-r -R0 1.5
# process = H    
# collider = pp   
# rts =  13000.000
# M   =    125.000
# muR =     62.500
# muF =     62.500
# Q   =    125.000
# p   =      5.000
# include_c1_squared =   F
# loop_mass  = none
# alphas(MZ) =    0.11800
# alphas(M) =    0.11264
# alphas(muR) =    0.12516
# Rjet =      0.400
# order = NNLL
# pdf name and set = PDF4LHC15_nnlo_mc.LHgrid,    0
# matching scheme = b
# total cross sections [nb] at LO, NLOdiff, NNLOdiff, N3LOdiff =     0.015055    0.019611    0.008998    0.001413
#----------------------------------------------------------------------
# the lines that follow give the jet-veto efficiencies as a function of pt
#         pt            matched eff      resummed eff     fixed-order eff
   2.00000000E+001   5.03210962E-001   6.40256005E-001   3.20844325E-001
   2.50000000E+001   5.78178245E-001   7.14653652E-001   4.29272444E-001
   3.00000000E+001   6.38351954E-001   7.65090888E-001   5.13978769E-001
   3.50000000E+001   6.87046504E-001   7.98819077E-001   5.81442017E-001
   4.00000000E+001   7.27268424E-001   8.20757329E-001   6.36470582E-001
   4.50000000E+001   7.60823351E-001   8.34214176E-001   6.82049408E-001
   5.00000000E+001   7.89083264E-001   8.41492131E-001   7.20304754E-001
   5.50000000E+001   8.13022823E-001   8.44244631E-001   7.52707770E-001
   6.00000000E+001   8.33320406E-001   8.43674561E-001   7.80293093E-001
   6.50000000E+001   8.50794301E-001   8.40683576E-001   8.04094553E-001
   7.00000000E+001   8.65966338E-001   8.35963988E-001   8.24799203E-001
   7.50000000E+001   8.78960386E-001   8.30049494E-001   8.42689242E-001
   8.00000000E+001   8.90343632E-001   8.23361668E-001   8.58403155E-001
   8.50000000E+001   9.00343642E-001   8.16239689E-001   8.72248607E-001
   9.00000000E+001   9.09166125E-001   8.08956857E-001   8.84490214E-001
   9.50000000E+001   9.16869316E-001   8.01730647E-001   8.95243884E-001
   1.00000000E+002   9.23742056E-001   7.94732114E-001   9.04822178E-001
   1.05000000E+002   9.29815356E-001   7.88089413E-001   9.13297358E-001
   1.10000000E+002   9.35309345E-001   7.81892293E-001   9.20909416E-001
   1.15000000E+002   9.40230414E-001   7.76197107E-001   9.27694941E-001
   1.20000000E+002   9.44713354E-001   7.71030070E-001   9.33811268E-001
   1.25000000E+002   9.48798129E-001   7.66393702E-001   9.39322340E-001
   1.30000000E+002   9.52483312E-001   7.62272356E-001   9.44251399E-001
   1.35000000E+002   9.55889057E-001   7.58637263E-001   9.48735691E-001
   1.40000000E+002   9.59016893E-001   7.55451244E-001   9.52797807E-001
   1.45000000E+002   9.61850004E-001   7.52672650E-001   9.56439457E-001
   1.50000000E+002   9.64499570E-001   7.50258445E-001   9.59786275E-001
   1.55000000E+002   9.66915639E-001   7.48166442E-001   9.62804347E-001
   1.60000000E+002   9.69171869E-001   7.46356790E-001   9.65579670E-001
   1.65000000E+002   9.71225952E-001   7.44792809E-001   9.68082008E-001
   1.70000000E+002   9.73155096E-001   7.43441520E-001   9.70397828E-001
   1.75000000E+002   9.74955828E-001   7.42273692E-001   9.72532555E-001
   1.80000000E+002   9.76594528E-001   7.41263673E-001   9.74460602E-001
   1.85000000E+002   9.78123113E-001   7.40389172E-001   9.76239797E-001
   1.90000000E+002   9.79546408E-001   7.39630948E-001   9.77880551E-001
   1.95000000E+002   9.80851943E-001   7.38972475E-001   9.79375286E-001
   2.00000000E+002   9.82066472E-001   7.38399603E-001   9.80754640E-001
   2.05000000E+002   9.83210778E-001   7.37900245E-001   9.82042753E-001
   2.10000000E+002   9.84255473E-001   7.37464089E-001   9.83213352E-001
   2.15000000E+002   9.85243958E-001   7.37082345E-001   9.84312105E-001
   2.20000000E+002   9.86164393E-001   7.36747517E-001   9.85329407E-001
   2.25000000E+002   9.86991117E-001   7.36453214E-001   9.86241514E-001
   2.30000000E+002   9.87816288E-001   7.36193977E-001   9.87141826E-001
   2.35000000E+002   9.88543554E-001   7.35965143E-001   9.87935633E-001
   2.40000000E+002   9.89236817E-001   7.35762720E-001   9.88687810E-001
   2.45000000E+002   9.89883717E-001   7.35583288E-001   9.89386996E-001
