# ./jetvheto -in n3lo-fixed-order/H125-LHC13-R04-mb-0-mt-1725-xmur050-xmuf050-log.fxd -xQ 1.0 -out benchmarks-n3lo-smallR/H125-LHC13-R04-mb-0-mt-1725-xmur050-xmuf050-xQ100-NNLO+NNLLb.R0-1.0.res -scheme b -order 2 -ptmax 500.01 -small-r -fixed_order 2 -loop-mass t -R0 1.0
# process = H    
# collider = pp   
# rts =  13000.000
# M   =    125.000
# muR =     62.500
# muF =     62.500
# Q   =    125.000
# p   =      5.000
# include_c1_squared =   F
# loop_mass  = t   
# alphas(MZ) =    0.11800
# alphas(M) =    0.11264
# alphas(muR) =    0.12516
# Rjet =      0.400
# order = NNLL
# pdf name and set = PDF4LHC15_nnlo_mc.LHgrid,    0
# matching scheme = b
# total cross sections [nb] at LO, NLOdiff, NNLOdiff, N3LOdiff =     0.015885    0.020561    0.008998    0.001413
#----------------------------------------------------------------------
# the lines that follow give the jet-veto efficiencies as a function of pt
#         pt            matched eff      resummed eff     fixed-order eff
   2.00000000E+001   4.95843128E-001   6.16862602E-001   3.37968833E-001
   2.50000000E+001   5.76034285E-001   6.97679791E-001   4.45490403E-001
   3.00000000E+001   6.39438051E-001   7.52998483E-001   5.29094091E-001
   3.50000000E+001   6.90602638E-001   7.90446461E-001   5.95850260E-001
   4.00000000E+001   7.32376690E-001   8.15242219E-001   6.50115846E-001
   4.50000000E+001   7.66899953E-001   8.30914628E-001   6.94939270E-001
   5.00000000E+001   7.96084528E-001   8.39925028E-001   7.32769177E-001
   5.50000000E+001   8.20207822E-001   8.44041795E-001   7.64361916E-001
   6.00000000E+001   8.40836772E-001   8.44551997E-001   7.91465371E-001
   6.50000000E+001   8.58530761E-001   8.42419786E-001   8.14838120E-001
   7.00000000E+001   8.73754527E-001   8.38384582E-001   8.35078651E-001
   7.50000000E+001   8.86773063E-001   8.33016091E-001   8.52570605E-001
   8.00000000E+001   8.98155953E-001   8.26763808E-001   8.67937405E-001
   8.50000000E+001   9.08137085E-001   8.19988858E-001   8.81478135E-001
   9.00000000E+001   9.16886027E-001   8.12982000E-001   8.93411828E-001
   9.50000000E+001   9.24485583E-001   8.05974730E-001   9.03868009E-001
   1.00000000E+002   9.31342251E-001   7.99149444E-001   9.13265993E-001
   1.05000000E+002   9.37297178E-001   7.92643506E-001   9.21489390E-001
   1.10000000E+002   9.42647849E-001   7.86554141E-001   9.28847842E-001
   1.15000000E+002   9.47480107E-001   7.80943753E-001   9.35451292E-001
   1.20000000E+002   9.51866404E-001   7.75843433E-001   9.41393487E-001
   1.25000000E+002   9.55902499E-001   7.71259593E-001   9.46790455E-001
   1.30000000E+002   9.59478211E-001   7.67179682E-001   9.51556334E-001
   1.35000000E+002   9.62749938E-001   7.63577369E-001   9.55862035E-001
   1.40000000E+002   9.65780158E-001   7.60417381E-001   9.59788706E-001
   1.45000000E+002   9.68572245E-001   7.57659556E-001   9.63356960E-001
   1.50000000E+002   9.71168854E-001   7.55262009E-001   9.66623739E-001
   1.55000000E+002   9.73525403E-001   7.53183442E-001   9.69559478E-001
   1.60000000E+002   9.75694108E-001   7.51384693E-001   9.72228153E-001
   1.65000000E+002   9.77673240E-001   7.49829615E-001   9.74639208E-001
   1.70000000E+002   9.79518292E-001   7.48485638E-001   9.76857081E-001
   1.75000000E+002   9.81208606E-001   7.47323854E-001   9.78869658E-001
   1.80000000E+002   9.82742171E-001   7.46318860E-001   9.80682463E-001
   1.85000000E+002   9.84179573E-001   7.45448561E-001   9.82361728E-001
   1.90000000E+002   9.85504744E-001   7.44693870E-001   9.83896830E-001
   1.95000000E+002   9.86722237E-001   7.44038383E-001   9.85296972E-001
   2.00000000E+002   9.87844477E-001   7.43468048E-001   9.86578358E-001
   2.05000000E+002   9.88879891E-001   7.42970855E-001   9.87752669E-001
   2.10000000E+002   9.89810054E-001   7.42536555E-001   9.88804449E-001
   2.15000000E+002   9.90699043E-001   7.42156409E-001   9.89799927E-001
   2.20000000E+002   9.91515002E-001   7.41822963E-001   9.90709441E-001
   2.25000000E+002   9.92240150E-001   7.41529858E-001   9.91517046E-001
   2.30000000E+002   9.92961038E-001   7.41271666E-001   9.92310501E-001
   2.35000000E+002   9.93579158E-001   7.41043744E-001   9.92992886E-001
   2.40000000E+002   9.94167586E-001   7.40842121E-001   9.93638203E-001
   2.45000000E+002   9.94707262E-001   7.40663392E-001   9.94228366E-001
