# ./jetvheto -in n3lo-fixed-order/H125-LHC13-R04-mb-0-mt-1725-xmur025-xmuf050-log.fxd -xQ 0.0625 -out benchmarks-n3lo-smallR/H125-LHC13-R04-mb-0-mt-1725-xmur025-xmuf050-xQ0625-N3LO+NNLLa.R0-2.0.res -scheme a -order 2 -ptmax 500.01 -small-r -fixed_order 3 -loop-mass t -R0 2.0
# process = H    
# collider = pp   
# rts =  13000.000
# M   =    125.000
# muR =     31.250
# muF =     62.500
# Q   =      7.812
# p   =      5.000
# include_c1_squared =   F
# loop_mass  = t   
# alphas(MZ) =    0.11800
# alphas(M) =    0.11264
# alphas(muR) =    0.14091
# Rjet =      0.400
# order = NNLL
# pdf name and set = PDF4LHC15_nnlo_mc.LHgrid,    0
# matching scheme = a
# total cross sections [nb] at LO, NLOdiff, NNLOdiff, N3LOdiff =     0.019855    0.024744    0.005009   -0.002663
#----------------------------------------------------------------------
# the lines that follow give the jet-veto efficiencies as a function of pt
#         pt            matched eff      resummed eff     fixed-order eff
   2.00000000E+001   4.64419143E-001   3.57330126E-002   4.64441433E-001
   2.50000000E+001   5.46985073E-001   3.58885487E-002   5.46982713E-001
   3.00000000E+001   6.21748652E-001   3.59341280E-002   6.21747969E-001
   3.50000000E+001   6.80661279E-001   3.59506103E-002   6.80660873E-001
   4.00000000E+001   7.24684926E-001   3.59575272E-002   7.24684346E-001
   4.50000000E+001   7.64688864E-001   3.59607697E-002   7.64688533E-001
   5.00000000E+001   7.95841071E-001   3.59624255E-002   7.95840800E-001
   5.50000000E+001   8.23173334E-001   3.59633307E-002   8.23173148E-001
   6.00000000E+001   8.45053053E-001   3.59638537E-002   8.45052906E-001
   6.50000000E+001   8.66318815E-001   3.59641703E-002   8.66318719E-001
   7.00000000E+001   8.81329923E-001   3.59643694E-002   8.81329841E-001
   7.50000000E+001   8.95119628E-001   3.59644989E-002   8.95119563E-001
   8.00000000E+001   9.07814628E-001   3.59645857E-002   9.07814578E-001
   8.50000000E+001   9.19132274E-001   3.59646452E-002   9.19132236E-001
   9.00000000E+001   9.29115006E-001   3.59646870E-002   9.29114976E-001
   9.50000000E+001   9.36524661E-001   3.59647170E-002   9.36524636E-001
   1.00000000E+002   9.43963468E-001   3.59647388E-002   9.43963449E-001
   1.05000000E+002   9.49378240E-001   3.59647549E-002   9.49378223E-001
   1.10000000E+002   9.54478266E-001   3.59647671E-002   9.54478252E-001
   1.15000000E+002   9.59539136E-001   3.59647763E-002   9.59539125E-001
   1.20000000E+002   9.64105621E-001   3.59647834E-002   9.64105612E-001
   1.25000000E+002   9.67624330E-001   3.59647889E-002   9.67624322E-001
   1.30000000E+002   9.70595366E-001   3.59647933E-002   9.70595359E-001
   1.35000000E+002   9.73817650E-001   3.59647968E-002   9.73817644E-001
   1.40000000E+002   9.76758242E-001   3.59647995E-002   9.76758237E-001
   1.45000000E+002   9.79225062E-001   3.59648018E-002   9.79225058E-001
   1.50000000E+002   9.80840248E-001   3.59648036E-002   9.80840244E-001
   1.55000000E+002   9.83173625E-001   3.59648051E-002   9.83173622E-001
   1.60000000E+002   9.85240372E-001   3.59648063E-002   9.85240369E-001
   1.65000000E+002   9.86018477E-001   3.59648073E-002   9.86018475E-001
   1.70000000E+002   9.87596099E-001   3.59648081E-002   9.87596097E-001
   1.75000000E+002   9.89070567E-001   3.59648089E-002   9.89070565E-001
   1.80000000E+002   9.90030167E-001   3.59648095E-002   9.90030165E-001
   1.85000000E+002   9.90904045E-001   3.59648100E-002   9.90904044E-001
   1.90000000E+002   9.91918162E-001   3.59648104E-002   9.91918160E-001
   1.95000000E+002   9.92868748E-001   3.59648108E-002   9.92868747E-001
   2.00000000E+002   9.93682267E-001   3.59648111E-002   9.93682266E-001
   2.05000000E+002   9.94218009E-001   3.59648113E-002   9.94218008E-001
   2.10000000E+002   9.94840712E-001   3.59648116E-002   9.94840712E-001
   2.15000000E+002   9.95209113E-001   3.59648118E-002   9.95209113E-001
   2.20000000E+002   9.96061093E-001   3.59648120E-002   9.96061092E-001
   2.25000000E+002   9.96292502E-001   3.59648121E-002   9.96292501E-001
   2.30000000E+002   9.96699807E-001   3.59648122E-002   9.96699807E-001
   2.35000000E+002   9.96933235E-001   3.59648124E-002   9.96933235E-001
   2.40000000E+002   9.97250906E-001   3.59648125E-002   9.97250905E-001
   2.45000000E+002   9.97727499E-001   3.59648126E-002   9.97727498E-001
