# ./jetvheto -in n3lo-fixed-order/H125-LHC13-R04-mb-475-mt-1725-xmur025-xmuf025-log.fxd -xQ 0.5 -out benchmarks-n3lo-smallR/H125-LHC13-R04-mb-475-mt-1725-xmur025-xmuf025-xQ050-N3LO+NNLLb.res -scheme b -order 2 -ptmax 500.01 -fixed_order 3 -loop-mass t+b
# process = H    
# collider = pp   
# rts =  13000.000
# M   =    125.000
# muR =     31.250
# muF =     31.250
# Q   =     62.500
# p   =      5.000
# include_c1_squared =   F
# loop_mass  = t+b 
# alphas(MZ) =    0.11800
# alphas(M) =    0.11264
# alphas(muR) =    0.14091
# Rjet =      0.400
# order = NNLL
# pdf name and set = PDF4LHC15_nnlo_mc.LHgrid,    0
# matching scheme = b
# total cross sections [nb] at LO, NLOdiff, NNLOdiff, N3LOdiff =     0.016156    0.025248    0.006043   -0.002471
#----------------------------------------------------------------------
# the lines that follow give the jet-veto efficiencies as a function of pt
#         pt            matched eff      resummed eff     fixed-order eff
   2.00000000E+001   4.66937459E-001   4.56646336E-001   4.73361890E-001
   2.50000000E+001   5.57454834E-001   5.24573470E-001   5.57907042E-001
   3.00000000E+001   6.27929074E-001   5.71894446E-001   6.25013535E-001
   3.50000000E+001   6.83654720E-001   6.04429089E-001   6.79173210E-001
   4.00000000E+001   7.29404974E-001   6.26366648E-001   7.24625035E-001
   4.50000000E+001   7.67823345E-001   6.40732465E-001   7.63371502E-001
   5.00000000E+001   7.99366602E-001   6.49797597E-001   7.95495231E-001
   5.50000000E+001   8.27294187E-001   6.55292374E-001   8.24104927E-001
   6.00000000E+001   8.49760576E-001   6.58495861E-001   8.47184049E-001
   6.50000000E+001   8.66826389E-001   6.60302123E-001   8.64770902E-001
   7.00000000E+001   8.83859640E-001   6.61295283E-001   8.82253257E-001
   7.50000000E+001   8.98246253E-001   6.61832481E-001   8.96997862E-001
   8.00000000E+001   9.09717907E-001   6.62120542E-001   9.08743249E-001
   8.50000000E+001   9.20756353E-001   6.62274345E-001   9.19995203E-001
   9.00000000E+001   9.30346991E-001   6.62356220E-001   9.29749497E-001
   9.50000000E+001   9.36543152E-001   6.62399577E-001   9.36069876E-001
   1.00000000E+002   9.44612015E-001   6.62422258E-001   9.44236164E-001
   1.05000000E+002   9.50144560E-001   6.62433817E-001   9.49843066E-001
   1.10000000E+002   9.56442653E-001   6.62439393E-001   9.56199645E-001
   1.15000000E+002   9.61671104E-001   6.62441771E-001   9.61473671E-001
   1.20000000E+002   9.65421082E-001   6.62442466E-001   9.65259433E-001
   1.25000000E+002   9.68589018E-001   6.62442303E-001   9.68455876E-001
   1.30000000E+002   9.72217229E-001   6.62441734E-001   9.72106942E-001
   1.35000000E+002   9.74994901E-001   6.62441000E-001   9.74902930E-001
   1.40000000E+002   9.77703917E-001   6.62440232E-001   9.77626842E-001
   1.45000000E+002   9.80220813E-001   6.62439493E-001   9.80155857E-001
   1.50000000E+002   9.82279928E-001   6.62438813E-001   9.82224912E-001
   1.55000000E+002   9.84189633E-001   6.62438203E-001   9.84142813E-001
   1.60000000E+002   9.86433042E-001   6.62437665E-001   9.86393034E-001
   1.65000000E+002   9.87795271E-001   6.62437193E-001   9.87760899E-001
   1.70000000E+002   9.88829744E-001   6.62436783E-001   9.88800097E-001
   1.75000000E+002   9.90458122E-001   6.62436428E-001   9.90432465E-001
   1.80000000E+002   9.91264902E-001   6.62436119E-001   9.91242596E-001
   1.85000000E+002   9.92473148E-001   6.62435852E-001   9.92453704E-001
   1.90000000E+002   9.93286567E-001   6.62435620E-001   9.93269549E-001
   1.95000000E+002   9.94299298E-001   6.62435419E-001   9.94284359E-001
   2.00000000E+002   9.94855588E-001   6.62435245E-001   9.94842428E-001
   2.05000000E+002   9.95443999E-001   6.62435093E-001   9.95432372E-001
   2.10000000E+002   9.95966436E-001   6.62434960E-001   9.95956133E-001
   2.15000000E+002   9.96719549E-001   6.62434844E-001   9.96710401E-001
   2.20000000E+002   9.97096078E-001   6.62434742E-001   9.97087928E-001
   2.25000000E+002   9.97674791E-001   6.62434653E-001   9.97667515E-001
   2.30000000E+002   9.97999453E-001   6.62434574E-001   9.97992941E-001
   2.35000000E+002   9.98148422E-001   6.62434505E-001   9.98142577E-001
   2.40000000E+002   9.98592994E-001   6.62434444E-001   9.98587740E-001
   2.45000000E+002   9.98915349E-001   6.62434390E-001   9.98910616E-001
