# ./jetvheto -in n3lo-fixed-order/H125-LHC13-R04-mb-475-mt-1725-xmur200-xmuf100-log.fxd -xQ 0.5 -out benchmarks-n3lo-smallR/H125-LHC13-R04-mb-475-mt-1725-xmur200-xmuf100-xQ050-NNLO+NNLLb.res -scheme b -order 2 -ptmax 500.01 -fixed_order 2 -loop-mass t+b
# process = H    
# collider = pp   
# rts =  13000.000
# M   =    125.000
# muR =    250.000
# muF =    125.000
# Q   =     62.500
# p   =      5.000
# include_c1_squared =   F
# loop_mass  = t+b 
# alphas(MZ) =    0.11800
# alphas(M) =    0.11264
# alphas(muR) =    0.10244
# Rjet =      0.400
# order = NNLL
# pdf name and set = PDF4LHC15_nnlo_mc.LHgrid,    0
# matching scheme = b
# total cross sections [nb] at LO, NLOdiff, NNLOdiff, N3LOdiff =     0.010243    0.014468    0.010526    0.005600
#----------------------------------------------------------------------
# the lines that follow give the jet-veto efficiencies as a function of pt
#         pt            matched eff      resummed eff     fixed-order eff
   2.00000000E+001   3.97427561E-001   5.12805767E-001   3.28991553E-001
   2.50000000E+001   4.82365455E-001   5.96923082E-001   4.37913320E-001
   3.00000000E+001   5.52207337E-001   6.57160381E-001   5.21523223E-001
   3.50000000E+001   6.10268136E-001   6.99775458E-001   5.88073721E-001
   4.00000000E+001   6.58537961E-001   7.29396067E-001   6.41967052E-001
   4.50000000E+001   6.99145076E-001   7.49502773E-001   6.86538953E-001
   5.00000000E+001   7.33588402E-001   7.62775180E-001   7.23921373E-001
   5.50000000E+001   7.62923613E-001   7.71290947E-001   7.55501832E-001
   6.00000000E+001   7.88315131E-001   7.76628114E-001   7.82629750E-001
   6.50000000E+001   8.10384797E-001   7.79926675E-001   8.06038024E-001
   7.00000000E+001   8.29632030E-001   7.81960321E-001   8.26309424E-001
   7.50000000E+001   8.46509216E-001   7.83225081E-001   8.43964512E-001
   8.00000000E+001   8.61496761E-001   7.84025544E-001   8.59539380E-001
   8.50000000E+001   8.74676103E-001   7.84543895E-001   8.73161527E-001
   9.00000000E+001   8.86495319E-001   7.84888242E-001   8.85315039E-001
   9.50000000E+001   8.96949988E-001   7.85122980E-001   8.96023065E-001
   1.00000000E+002   9.06294447E-001   7.85286994E-001   9.05560581E-001
   1.05000000E+002   9.14706560E-001   7.85404229E-001   9.14120778E-001
   1.10000000E+002   9.22150049E-001   7.85489767E-001   9.21678769E-001
   1.15000000E+002   9.28919666E-001   7.85553334E-001   9.28537545E-001
   1.20000000E+002   9.34925324E-001   7.85601352E-001   9.34613214E-001
   1.25000000E+002   9.40440332E-001   7.85638156E-001   9.40183574E-001
   1.30000000E+002   9.45405939E-001   7.85666733E-001   9.45193299E-001
   1.35000000E+002   9.49923007E-001   7.85689181E-001   9.49745786E-001
   1.40000000E+002   9.53991643E-001   7.85707001E-001   9.53843045E-001
   1.45000000E+002   9.57746385E-001   7.85721282E-001   9.57621084E-001
   1.50000000E+002   9.61114558E-001   7.85732826E-001   9.61008331E-001
   1.55000000E+002   9.64232686E-001   7.85742231E-001   9.64142171E-001
   1.60000000E+002   9.67047735E-001   7.85749950E-001   9.66970244E-001
   1.65000000E+002   9.69630342E-001   7.85756328E-001   9.69563698E-001
   1.70000000E+002   9.71996634E-001   7.85761630E-001   9.71939074E-001
   1.75000000E+002   9.74141845E-001   7.85766064E-001   9.74091928E-001
   1.80000000E+002   9.76113959E-001   7.85769792E-001   9.76070506E-001
   1.85000000E+002   9.77921573E-001   7.85772942E-001   9.77883606E-001
   1.90000000E+002   9.79584015E-001   7.85775617E-001   9.79550728E-001
   1.95000000E+002   9.81133995E-001   7.85777898E-001   9.81104714E-001
   2.00000000E+002   9.82541599E-001   7.85779851E-001   9.82515760E-001
   2.05000000E+002   9.83847876E-001   7.85781531E-001   9.83825007E-001
   2.10000000E+002   9.85043253E-001   7.85782981E-001   9.85022954E-001
   2.15000000E+002   9.86123601E-001   7.85784237E-001   9.86105535E-001
   2.20000000E+002   9.87139961E-001   7.85785329E-001   9.87123839E-001
   2.25000000E+002   9.88071491E-001   7.85786281E-001   9.88057069E-001
   2.30000000E+002   9.88930774E-001   7.85787114E-001   9.88917842E-001
   2.35000000E+002   9.89731894E-001   7.85787845E-001   9.89720271E-001
   2.40000000E+002   9.90455787E-001   7.85788488E-001   9.90445317E-001
   2.45000000E+002   9.91140907E-001   7.85789055E-001   9.91131456E-001
