# ./jetvheto -in n3lo-fixed-order/H125-LHC13-R04-mb-475-mt-1725-xmur100-xmuf200-log.fxd -xQ 0.25 -out benchmarks-n3lo-smallR/H125-LHC13-R04-mb-475-mt-1725-xmur100-xmuf200-xQ025-N3LO+NNLLb.R0-2.0.res -scheme b -order 2 -ptmax 500.01 -fixed_order 3 -small-r -loop-mass t+b -R0 2.0
# process = H    
# collider = pp   
# rts =  13000.000
# M   =    125.000
# muR =    125.000
# muF =    250.000
# Q   =     31.250
# p   =      5.000
# include_c1_squared =   F
# loop_mass  = t+b 
# alphas(MZ) =    0.11800
# alphas(M) =    0.11264
# alphas(muR) =    0.11264
# Rjet =      0.400
# order = NNLL
# pdf name and set = PDF4LHC15_nnlo_mc.LHgrid,    0
# matching scheme = b
# total cross sections [nb] at LO, NLOdiff, NNLOdiff, N3LOdiff =     0.012791    0.017144    0.009991    0.003297
#----------------------------------------------------------------------
# the lines that follow give the jet-veto efficiencies as a function of pt
#         pt            matched eff      resummed eff     fixed-order eff
   2.00000000E+001   4.17148992E-001   5.34519623E-001   3.98403480E-001
   2.50000000E+001   5.05340781E-001   6.02737394E-001   4.96267892E-001
   3.00000000E+001   5.75499343E-001   6.42588525E-001   5.71031797E-001
   3.50000000E+001   6.34925831E-001   6.64173857E-001   6.32752564E-001
   4.00000000E+001   6.84234547E-001   6.75478383E-001   6.83141463E-001
   4.50000000E+001   7.24032798E-001   6.81441996E-001   7.23442380E-001
   5.00000000E+001   7.59936161E-001   6.84687071E-001   7.59617644E-001
   5.50000000E+001   7.88767355E-001   6.86524618E-001   7.88581283E-001
   6.00000000E+001   8.13487932E-001   6.87608254E-001   8.13375233E-001
   6.50000000E+001   8.34429684E-001   6.88272039E-001   8.34358241E-001
   7.00000000E+001   8.53778163E-001   6.88692847E-001   8.53732779E-001
   7.50000000E+001   8.69497248E-001   6.88967914E-001   8.69466670E-001
   8.00000000E+001   8.83144607E-001   6.89152671E-001   8.83123366E-001
   8.50000000E+001   8.95401797E-001   6.89279806E-001   8.95386863E-001
   9.00000000E+001   9.05730806E-001   6.89369197E-001   9.05719910E-001
   9.50000000E+001   9.15628770E-001   6.89433272E-001   9.15620884E-001
   1.00000000E+002   9.23832265E-001   6.89480006E-001   9.23826352E-001
   1.05000000E+002   9.30988513E-001   6.89514630E-001   9.30983974E-001
   1.10000000E+002   9.37117249E-001   6.89540649E-001   9.37113690E-001
   1.15000000E+002   9.43076165E-001   6.89560456E-001   9.43073389E-001
   1.20000000E+002   9.48502045E-001   6.89575713E-001   9.48499863E-001
   1.25000000E+002   9.52867357E-001   6.89587595E-001   9.52865589E-001
   1.30000000E+002   9.57127310E-001   6.89596940E-001   9.57125883E-001
   1.35000000E+002   9.60682136E-001   6.89604359E-001   9.60680960E-001
   1.40000000E+002   9.64407404E-001   6.89610298E-001   9.64406447E-001
   1.45000000E+002   9.67211843E-001   6.89615092E-001   9.67211040E-001
   1.50000000E+002   9.70061690E-001   6.89618989E-001   9.70061020E-001
   1.55000000E+002   9.72579012E-001   6.89622180E-001   9.72578448E-001
   1.60000000E+002   9.74734890E-001   6.89624808E-001   9.74734409E-001
   1.65000000E+002   9.76568072E-001   6.89626988E-001   9.76567658E-001
   1.70000000E+002   9.78648734E-001   6.89628804E-001   9.78648382E-001
   1.75000000E+002   9.80271899E-001   6.89630327E-001   9.80271594E-001
   1.80000000E+002   9.82145412E-001   6.89631610E-001   9.82145152E-001
   1.85000000E+002   9.83352577E-001   6.89632695E-001   9.83352349E-001
   1.90000000E+002   9.84651004E-001   6.89633619E-001   9.84650805E-001
   1.95000000E+002   9.85787705E-001   6.89634407E-001   9.85787530E-001
   2.00000000E+002   9.87128456E-001   6.89635083E-001   9.87128304E-001
   2.05000000E+002   9.87944568E-001   6.89635664E-001   9.87944432E-001
   2.10000000E+002   9.88735891E-001   6.89636167E-001   9.88735771E-001
   2.15000000E+002   9.89651007E-001   6.89636602E-001   9.89650901E-001
   2.20000000E+002   9.90501017E-001   6.89636981E-001   9.90500922E-001
   2.25000000E+002   9.91115250E-001   6.89637312E-001   9.91115165E-001
   2.30000000E+002   9.91712825E-001   6.89637601E-001   9.91712748E-001
   2.35000000E+002   9.92363949E-001   6.89637855E-001   9.92363881E-001
   2.40000000E+002   9.92925913E-001   6.89638078E-001   9.92925851E-001
   2.45000000E+002   9.93471594E-001   6.89638275E-001   9.93471538E-001
