# ./jetvheto -in n3lo-fixed-order/H125-LHC13-R04-heft-xmur025-xmuf050-log.fxd -xQ 0.50 -out benchmarks-n3lo-smallR/H125-LHC13-R04-heft-xmur025-xmuf050-xQ050-NNLO+NNLLb.R0-2.0.res -scheme b -order 2 -ptmax 500.01 -fixed_order 2 -small-r -R0 2.0
# process = H    
# collider = pp   
# rts =  13000.000
# M   =    125.000
# muR =     31.250
# muF =     62.500
# Q   =     62.500
# p   =      5.000
# include_c1_squared =   F
# loop_mass  = none
# alphas(MZ) =    0.11800
# alphas(M) =    0.11264
# alphas(muR) =    0.14091
# Rjet =      0.400
# order = NNLL
# pdf name and set = PDF4LHC15_nnlo_mc.LHgrid,    0
# matching scheme = b
# total cross sections [nb] at LO, NLOdiff, NNLOdiff, N3LOdiff =     0.019087    0.023444    0.005009   -0.002663
#----------------------------------------------------------------------
# the lines that follow give the jet-veto efficiencies as a function of pt
#         pt            matched eff      resummed eff     fixed-order eff
   2.00000000E+001   4.73815720E-001   5.25366331E-001   3.51201593E-001
   2.50000000E+001   5.47272522E-001   5.86031677E-001   4.53092817E-001
   3.00000000E+001   6.06943637E-001   6.27710824E-001   5.34374852E-001
   3.50000000E+001   6.55751284E-001   6.55909804E-001   5.99824365E-001
   4.00000000E+001   6.96513729E-001   6.74495985E-001   6.53525896E-001
   4.50000000E+001   7.31027955E-001   6.86270555E-001   6.98153016E-001
   5.00000000E+001   7.60688164E-001   6.93348848E-001   7.35694236E-001
   5.50000000E+001   7.86389158E-001   6.97338310E-001   7.67474216E-001
   6.00000000E+001   8.08786793E-001   6.99418488E-001   7.94510343E-001
   6.50000000E+001   8.28582218E-001   7.00396899E-001   8.17803411E-001
   7.00000000E+001   8.46213183E-001   7.00785521E-001   8.38051240E-001
   7.50000000E+001   8.61672889E-001   7.00883313E-001   8.55460782E-001
   8.00000000E+001   8.75491608E-001   7.00851879E-001   8.70730835E-001
   8.50000000E+001   8.87820974E-001   7.00772418E-001   8.84143156E-001
   9.00000000E+001   8.98835050E-001   7.00682950E-001   8.95969392E-001
   9.50000000E+001   9.08536536E-001   7.00599438E-001   9.06284040E-001
   1.00000000E+002   9.17250988E-001   7.00527314E-001   9.15465002E-001
   1.05000000E+002   9.24952880E-001   7.00467337E-001   9.23524651E-001
   1.10000000E+002   9.31899921E-001   7.00418402E-001   9.30748349E-001
   1.15000000E+002   9.38093852E-001   7.00378838E-001   9.37158088E-001
   1.20000000E+002   9.43677005E-001   7.00346954E-001   9.42910903E-001
   1.25000000E+002   9.48713541E-001   7.00321258E-001   9.48081928E-001
   1.30000000E+002   9.53185303E-001   7.00300503E-001   9.52661099E-001
   1.35000000E+002   9.57263042E-001   7.00283681E-001   9.56825252E-001
   1.40000000E+002   9.60943616E-001   7.00269988E-001   9.60575828E-001
   1.45000000E+002   9.64225672E-001   7.00258792E-001   9.63914985E-001
   1.50000000E+002   9.67244323E-001   7.00249592E-001   9.66980484E-001
   1.55000000E+002   9.69952248E-001   7.00241996E-001   9.69727088E-001
   1.60000000E+002   9.72428799E-001   7.00235693E-001   9.72235737E-001
   1.65000000E+002   9.74646800E-001   7.00230437E-001   9.74480533E-001
   1.70000000E+002   9.76699141E-001   7.00226034E-001   9.76555346E-001
   1.75000000E+002   9.78589793E-001   7.00222329E-001   9.78464937E-001
   1.80000000E+002   9.80272542E-001   7.00219197E-001   9.80163723E-001
   1.85000000E+002   9.81823708E-001   7.00216539E-001   9.81728526E-001
   1.90000000E+002   9.83251965E-001   7.00214273E-001   9.83168427E-001
   1.95000000E+002   9.84539565E-001   7.00212334E-001   9.84466011E-001
   2.00000000E+002   9.85720652E-001   7.00210669E-001   9.85655687E-001
   2.05000000E+002   9.86823013E-001   7.00209234E-001   9.86765465E-001
   2.10000000E+002   9.87807746E-001   7.00207993E-001   9.87756625E-001
   2.15000000E+002   9.88738952E-001   7.00206915E-001   9.88693417E-001
   2.20000000E+002   9.89596379E-001   7.00205978E-001   9.89555717E-001
   2.25000000E+002   9.90344018E-001   7.00205159E-001   9.90307618E-001
   2.30000000E+002   9.91105617E-001   7.00204441E-001   9.91072955E-001
   2.35000000E+002   9.91756117E-001   7.00203812E-001   9.91726743E-001
   2.40000000E+002   9.92371649E-001   7.00203257E-001   9.92345174E-001
   2.45000000E+002   9.92942149E-001   7.00202767E-001   9.92918238E-001
