# ./jetvheto -in n3lo-fixed-order/H125-LHC13-R04-heft-xmur200-xmuf200-log.fxd -xQ 0.50 -out benchmarks-n3lo-smallR/H125-LHC13-R04-heft-xmur200-xmuf200-xQ050-NNLO+NNLLb.R0-1.5.res -scheme b -order 2 -ptmax 500.01 -fixed_order 2 -small-r -R0 1.5
# process = H    
# collider = pp   
# rts =  13000.000
# M   =    125.000
# muR =    250.000
# muF =    250.000
# Q   =     62.500
# p   =      5.000
# include_c1_squared =   F
# loop_mass  = none
# alphas(MZ) =    0.11800
# alphas(M) =    0.11264
# alphas(muR) =    0.10244
# Rjet =      0.400
# order = NNLL
# pdf name and set = PDF4LHC15_nnlo_mc.LHgrid,    0
# matching scheme = b
# total cross sections [nb] at LO, NLOdiff, NNLOdiff, N3LOdiff =     0.011138    0.014625    0.010464    0.005358
#----------------------------------------------------------------------
# the lines that follow give the jet-veto efficiencies as a function of pt
#         pt            matched eff      resummed eff     fixed-order eff
   2.00000000E+001   4.31662211E-001   5.43759127E-001   3.60942428E-001
   2.50000000E+001   5.15198296E-001   6.26716351E-001   4.67866112E-001
   3.00000000E+001   5.82564650E-001   6.85318491E-001   5.49013785E-001
   3.50000000E+001   6.37505108E-001   7.26214788E-001   6.12756753E-001
   4.00000000E+001   6.82784905E-001   7.54218115E-001   6.64071100E-001
   4.50000000E+001   7.20738771E-001   7.72890140E-001   7.06413256E-001
   5.00000000E+001   7.52553749E-001   7.84944993E-001   7.41539074E-001
   5.50000000E+001   7.79721340E-001   7.92468939E-001   7.71262535E-001
   6.00000000E+001   8.02969602E-001   7.97025854E-001   7.96490466E-001
   6.50000000E+001   8.23072171E-001   7.99726913E-001   8.18120881E-001
   7.00000000E+001   8.40689947E-001   8.01312047E-001   8.36906804E-001
   7.50000000E+001   8.56087891E-001   8.02244264E-001   8.53190631E-001
   8.00000000E+001   8.69750947E-001   8.02799517E-001   8.67522112E-001
   8.50000000E+001   8.81766179E-001   8.03137163E-001   8.80041029E-001
   9.00000000E+001   8.92505977E-001   8.03347865E-001   8.91160980E-001
   9.50000000E+001   9.02024517E-001   8.03483119E-001   9.00967665E-001
   1.00000000E+002   9.10436703E-001   8.03572489E-001   9.09599568E-001
   1.05000000E+002   9.18064319E-001   8.03633245E-001   9.17395765E-001
   1.10000000E+002   9.24901561E-001   8.03675655E-001   9.24363367E-001
   1.15000000E+002   9.31019962E-001   8.03705986E-001   9.30583365E-001
   1.20000000E+002   9.36539997E-001   8.03728157E-001   9.36183194E-001
   1.25000000E+002   9.41494548E-001   8.03744684E-001   9.41200899E-001
   1.30000000E+002   9.45977950E-001   8.03757218E-001   9.45734656E-001
   1.35000000E+002   9.50093515E-001   8.03766873E-001   9.49890660E-001
   1.40000000E+002   9.53807829E-001   8.03774411E-001   9.53637677E-001
   1.45000000E+002   9.57173806E-001   8.03780370E-001   9.57030282E-001
   1.50000000E+002   9.60243737E-001   8.03785131E-001   9.60122026E-001
   1.55000000E+002   9.63046703E-001   8.03788973E-001   9.62942968E-001
   1.60000000E+002   9.65638856E-001   8.03792100E-001   9.65550019E-001
   1.65000000E+002   9.67996544E-001   8.03794666E-001   9.67920125E-001
   1.70000000E+002   9.70151665E-001   8.03796787E-001   9.70085646E-001
   1.75000000E+002   9.72105738E-001   8.03798552E-001   9.72048475E-001
   1.80000000E+002   9.73924620E-001   8.03800030E-001   9.73874759E-001
   1.85000000E+002   9.75614576E-001   8.03801275E-001   9.75571003E-001
   1.90000000E+002   9.77159021E-001   8.03802328E-001   9.77120811E-001
   1.95000000E+002   9.78590059E-001   8.03803224E-001   9.78556441E-001
   2.00000000E+002   9.79898411E-001   8.03803989E-001   9.79868740E-001
   2.05000000E+002   9.81120352E-001   8.03804647E-001   9.81094087E-001
   2.10000000E+002   9.82254570E-001   8.03805213E-001   9.82231254E-001
   2.15000000E+002   9.83310166E-001   8.03805703E-001   9.83289410E-001
   2.20000000E+002   9.84284845E-001   8.03806128E-001   9.84266320E-001
   2.25000000E+002   9.85188589E-001   8.03806498E-001   9.85172015E-001
   2.30000000E+002   9.86040170E-001   8.03806822E-001   9.86025305E-001
   2.35000000E+002   9.86836619E-001   8.03807106E-001   9.86823257E-001
   2.40000000E+002   9.87558701E-001   8.03807355E-001   9.87546663E-001
   2.45000000E+002   9.88249202E-001   8.03807575E-001   9.88238334E-001
