# ./jetvheto -in n3lo-fixed-order/H125-LHC13-R04-mb-475-mt-1725-xmur100-xmuf200-log.fxd -xQ 0.5 -out benchmarks-n3lo-smallR/H125-LHC13-R04-mb-475-mt-1725-xmur100-xmuf200-xQ050-NNLO+NNLLb.R0-1.0.res -scheme b -order 2 -ptmax 500.01 -fixed_order 2 -small-r -loop-mass t+b -R0 1.0
# process = H    
# collider = pp   
# rts =  13000.000
# M   =    125.000
# muR =    125.000
# muF =    250.000
# Q   =     62.500
# p   =      5.000
# include_c1_squared =   F
# loop_mass  = t+b 
# alphas(MZ) =    0.11800
# alphas(M) =    0.11264
# alphas(muR) =    0.11264
# Rjet =      0.400
# order = NNLL
# pdf name and set = PDF4LHC15_nnlo_mc.LHgrid,    0
# matching scheme = b
# total cross sections [nb] at LO, NLOdiff, NNLOdiff, N3LOdiff =     0.012791    0.017144    0.009991    0.003297
#----------------------------------------------------------------------
# the lines that follow give the jet-veto efficiencies as a function of pt
#         pt            matched eff      resummed eff     fixed-order eff
   2.00000000E+001   4.11048857E-001   5.16912884E-001   3.29106479E-001
   2.50000000E+001   4.96070179E-001   5.95029597E-001   4.39529527E-001
   3.00000000E+001   5.65074871E-001   6.49793272E-001   5.24122484E-001
   3.50000000E+001   6.21937711E-001   6.87694374E-001   5.91301191E-001
   4.00000000E+001   6.69082010E-001   7.13399384E-001   6.45740756E-001
   4.50000000E+001   7.08625351E-001   7.30341552E-001   6.90716080E-001
   5.00000000E+001   7.42025029E-001   7.41121640E-001   7.28255957E-001
   5.50000000E+001   7.70550254E-001   7.47725280E-001   7.59993542E-001
   6.00000000E+001   7.94998480E-001   7.51628926E-001   7.86927122E-001
   6.50000000E+001   8.16304413E-001   7.53871344E-001   8.10143416E-001
   7.00000000E+001   8.35008861E-001   7.55135825E-001   8.30304175E-001
   7.50000000E+001   8.51392459E-001   7.55843412E-001   8.47789344E-001
   8.00000000E+001   8.65943482E-001   7.56240238E-001   8.63170279E-001
   8.50000000E+001   8.78741524E-001   7.56465040E-001   8.76593282E-001
   9.00000000E+001   8.90148688E-001   7.56594423E-001   8.88472295E-001
   9.50000000E+001   9.00270032E-001   7.56670345E-001   8.98951354E-001
   1.00000000E+002   9.09234707E-001   7.56715879E-001   9.08188939E-001
   1.05000000E+002   9.17362292E-001   7.56743845E-001   9.16526121E-001
   1.10000000E+002   9.24619059E-001   7.56761438E-001   9.23945186E-001
   1.15000000E+002   9.31140801E-001   7.56772772E-001   9.30593517E-001
   1.20000000E+002   9.36999920E-001   7.56780249E-001   9.36552205E-001
   1.25000000E+002   9.42258728E-001   7.56785296E-001   9.41889900E-001
   1.30000000E+002   9.47009334E-001   7.56788778E-001   9.46703480E-001
   1.35000000E+002   9.51352852E-001   7.56791233E-001   9.51097632E-001
   1.40000000E+002   9.55266707E-001   7.56792997E-001   9.55052473E-001
   1.45000000E+002   9.58813871E-001   7.56794289E-001   9.58633039E-001
   1.50000000E+002   9.62051755E-001   7.56795253E-001   9.61898307E-001
   1.55000000E+002   9.64987342E-001   7.56795983E-001   9.64856482E-001
   1.60000000E+002   9.67698002E-001   7.56796545E-001   9.67585880E-001
   1.65000000E+002   9.70166848E-001   7.56796984E-001   9.70070351E-001
   1.70000000E+002   9.72414164E-001   7.56797330E-001   9.72330764E-001
   1.75000000E+002   9.74434959E-001   7.56797607E-001   9.74362593E-001
   1.80000000E+002   9.76325118E-001   7.56797831E-001   9.76262084E-001
   1.85000000E+002   9.78063458E-001   7.56798013E-001   9.78008356E-001
   1.90000000E+002   9.79632976E-001   7.56798164E-001   9.79584644E-001
   1.95000000E+002   9.81087153E-001   7.56798288E-001   9.81044620E-001
   2.00000000E+002   9.82412186E-001   7.56798393E-001   9.82374640E-001
   2.05000000E+002   9.83644328E-001   7.56798481E-001   9.83611085E-001
   2.10000000E+002   9.84784329E-001   7.56798555E-001   9.84754813E-001
   2.15000000E+002   9.85835615E-001   7.56798619E-001   9.85809338E-001
   2.20000000E+002   9.86799661E-001   7.56798673E-001   9.86776206E-001
   2.25000000E+002   9.87684691E-001   7.56798720E-001   9.87663703E-001
   2.30000000E+002   9.88517964E-001   7.56798760E-001   9.88499140E-001
   2.35000000E+002   9.89294511E-001   7.56798795E-001   9.89277589E-001
   2.40000000E+002   9.89978990E-001   7.56798826E-001   9.89963744E-001
   2.45000000E+002   9.90638788E-001   7.56798853E-001   9.90625024E-001
