# ./jetvheto -in n3lo-fixed-order/H125-LHC13-R04-mb-475-mt-1725-xmur100-xmuf100-log.fxd -xQ 0.125 -out benchmarks-n3lo-smallR/H125-LHC13-R04-mb-475-mt-1725-xmur100-xmuf100-xQ125-NNLO+NNLLb.res -scheme b -order 2 -ptmax 500.01 -fixed_order 2 -loop-mass t+b
# process = H    
# collider = pp   
# rts =  13000.000
# M   =    125.000
# muR =    125.000
# muF =    125.000
# Q   =     15.625
# p   =      5.000
# include_c1_squared =   F
# loop_mass  = t+b 
# alphas(MZ) =    0.11800
# alphas(M) =    0.11264
# alphas(muR) =    0.11264
# Rjet =      0.400
# order = NNLL
# pdf name and set = PDF4LHC15_nnlo_mc.LHgrid,    0
# matching scheme = b
# total cross sections [nb] at LO, NLOdiff, NNLOdiff, N3LOdiff =     0.012292    0.016994    0.010146    0.003834
#----------------------------------------------------------------------
# the lines that follow give the jet-veto efficiencies as a function of pt
#         pt            matched eff      resummed eff     fixed-order eff
   2.00000000E+001   3.28448646E-001   4.98943298E-001   3.17550639E-001
   2.50000000E+001   4.30923020E-001   5.14144471E-001   4.27790656E-001
   3.00000000E+001   5.14021785E-001   5.19088858E-001   5.12989288E-001
   3.50000000E+001   5.81367132E-001   5.20940456E-001   5.80985186E-001
   4.00000000E+001   6.36343011E-001   5.21728095E-001   6.36189278E-001
   4.50000000E+001   6.81917421E-001   5.22099532E-001   6.81851830E-001
   5.00000000E+001   7.20175957E-001   5.22289755E-001   7.20147070E-001
   5.50000000E+001   7.52491685E-001   5.22393898E-001   7.52478916E-001
   6.00000000E+001   7.80260979E-001   5.22454127E-001   7.80255597E-001
   6.50000000E+001   8.04206172E-001   5.22490593E-001   8.04204225E-001
   7.00000000E+001   8.24915068E-001   5.22513543E-001   8.24914709E-001
   7.50000000E+001   8.42941976E-001   5.22528474E-001   8.42942328E-001
   8.00000000E+001   8.58824242E-001   5.22538473E-001   8.58824881E-001
   8.50000000E+001   8.72687376E-001   5.22545338E-001   8.72688093E-001
   9.00000000E+001   8.85053745E-001   5.22550159E-001   8.85054448E-001
   9.50000000E+001   8.95930319E-001   5.22553610E-001   8.95930965E-001
   1.00000000E+002   9.05603908E-001   5.22556126E-001   9.05604482E-001
   1.05000000E+002   9.14272220E-001   5.22557989E-001   9.14272722E-001
   1.10000000E+002   9.21916573E-001   5.22559388E-001   9.21917006E-001
   1.15000000E+002   9.28847561E-001   5.22560453E-001   9.28847935E-001
   1.20000000E+002   9.34979062E-001   5.22561273E-001   9.34979383E-001
   1.25000000E+002   9.40591007E-001   5.22561911E-001   9.40591281E-001
   1.30000000E+002   9.45630962E-001   5.22562414E-001   9.45631198E-001
   1.35000000E+002   9.50210314E-001   5.22562812E-001   9.50210516E-001
   1.40000000E+002   9.54312902E-001   5.22563131E-001   9.54313076E-001
   1.45000000E+002   9.58107459E-001   5.22563389E-001   9.58107610E-001
   1.50000000E+002   9.61490212E-001   5.22563598E-001   9.61490343E-001
   1.55000000E+002   9.64617710E-001   5.22563769E-001   9.64617823E-001
   1.60000000E+002   9.67446161E-001   5.22563911E-001   9.67446259E-001
   1.65000000E+002   9.70029510E-001   5.22564028E-001   9.70029596E-001
   1.70000000E+002   9.72399003E-001   5.22564125E-001   9.72399079E-001
   1.75000000E+002   9.74538344E-001   5.22564207E-001   9.74538410E-001
   1.80000000E+002   9.76507411E-001   5.22564276E-001   9.76507469E-001
   1.85000000E+002   9.78305273E-001   5.22564334E-001   9.78305324E-001
   1.90000000E+002   9.79959994E-001   5.22564384E-001   9.79960040E-001
   1.95000000E+002   9.81504041E-001   5.22564426E-001   9.81504081E-001
   2.00000000E+002   9.82901260E-001   5.22564462E-001   9.82901295E-001
   2.05000000E+002   9.84199413E-001   5.22564494E-001   9.84199444E-001
   2.10000000E+002   9.85383665E-001   5.22564521E-001   9.85383694E-001
   2.15000000E+002   9.86450730E-001   5.22564544E-001   9.86450755E-001
   2.20000000E+002   9.87457647E-001   5.22564564E-001   9.87457670E-001
   2.25000000E+002   9.88378420E-001   5.22564582E-001   9.88378441E-001
   2.30000000E+002   9.89227411E-001   5.22564598E-001   9.89227429E-001
   2.35000000E+002   9.90021612E-001   5.22564611E-001   9.90021629E-001
   2.40000000E+002   9.90734747E-001   5.22564623E-001   9.90734762E-001
   2.45000000E+002   9.91411022E-001   5.22564634E-001   9.91411035E-001
