# ./jetvheto -in n3lo-fixed-order/H125-LHC13-R04-heft-xmur100-xmuf100-log.fxd -xQ 0.50 -out benchmarks-n3lo-smallR/H125-LHC13-R04-heft-xmur100-xmuf100-xQ050-NNLO+NNLLb.res -scheme b -order 2 -ptmax 500.01 -fixed_order 2
# process = H    
# collider = pp   
# rts =  13000.000
# M   =    125.000
# muR =    125.000
# muF =    125.000
# Q   =     62.500
# p   =      5.000
# include_c1_squared =   F
# loop_mass  = none
# alphas(MZ) =    0.11800
# alphas(M) =    0.11264
# alphas(muR) =    0.11264
# Rjet =      0.400
# order = NNLL
# pdf name and set = PDF4LHC15_nnlo_mc.LHgrid,    0
# matching scheme = b
# total cross sections [nb] at LO, NLOdiff, NNLOdiff, N3LOdiff =     0.012945    0.016716    0.010146    0.003834
#----------------------------------------------------------------------
# the lines that follow give the jet-veto efficiencies as a function of pt
#         pt            matched eff      resummed eff     fixed-order eff
   2.00000000E+001   4.14090213E-001   5.14030119E-001   3.33152974E-001
   2.50000000E+001   4.98110936E-001   5.96589190E-001   4.42354030E-001
   3.00000000E+001   5.66411451E-001   6.55180244E-001   5.26280770E-001
   3.50000000E+001   6.22340229E-001   6.96241340E-001   5.92590428E-001
   4.00000000E+001   6.68844551E-001   7.24482712E-001   6.46413459E-001
   4.50000000E+001   7.07705550E-001   7.43418158E-001   6.90650611E-001
   5.00000000E+001   7.40632670E-001   7.55732524E-001   7.27636368E-001
   5.50000000E+001   7.68717810E-001   7.63490588E-001   7.58824117E-001
   6.00000000E+001   7.93025311E-001   7.68245729E-001   7.85509225E-001
   6.50000000E+001   8.14208309E-001   7.71107434E-001   8.08501674E-001
   7.00000000E+001   8.32646908E-001   7.72818399E-001   8.28308351E-001
   7.50000000E+001   8.48913268E-001   7.73846933E-001   8.45602652E-001
   8.00000000E+001   8.63282742E-001   7.74474943E-001   8.60742611E-001
   8.50000000E+001   8.75945529E-001   7.74867143E-001   8.73982907E-001
   9.00000000E+001   8.87291185E-001   7.75118710E-001   8.85762882E-001
   9.50000000E+001   8.97329014E-001   7.75284692E-001   8.96129047E-001
   1.00000000E+002   9.06297786E-001   7.75397300E-001   9.05347624E-001
   1.05000000E+002   9.14333388E-001   7.75475733E-001   9.13574722E-001
   1.10000000E+002   9.21500036E-001   7.75531696E-001   9.20889329E-001
   1.15000000E+002   9.27991248E-001   7.75572504E-001   9.27495781E-001
   1.20000000E+002   9.33812554E-001   7.75602843E-001   9.33407561E-001
   1.25000000E+002   9.39073208E-001   7.75625789E-001   9.38739831E-001
   1.30000000E+002   9.43820560E-001   7.75643409E-001   9.43544289E-001
   1.35000000E+002   9.48152432E-001   7.75657125E-001   9.47922026E-001
   1.40000000E+002   9.52026615E-001   7.75667930E-001   9.51833307E-001
   1.45000000E+002   9.55621032E-001   7.75676535E-001   9.55457933E-001
   1.50000000E+002   9.58824840E-001   7.75683454E-001   9.58686494E-001
   1.55000000E+002   9.61768464E-001   7.75689067E-001   9.61650523E-001
   1.60000000E+002   9.64481183E-001   7.75693657E-001   9.64380158E-001
   1.65000000E+002   9.66940204E-001   7.75697437E-001   9.66853279E-001
   1.70000000E+002   9.69221647E-001   7.75700572E-001   9.69146535E-001
   1.75000000E+002   9.71283523E-001   7.75703188E-001   9.71218357E-001
   1.80000000E+002   9.73202802E-001   7.75705383E-001   9.73146048E-001
   1.85000000E+002   9.74948041E-001   7.75707235E-001   9.74898433E-001
   1.90000000E+002   9.76562498E-001   7.75708805E-001   9.76518987E-001
   1.95000000E+002   9.78079670E-001   7.75710143E-001   9.78041382E-001
   2.00000000E+002   9.79466803E-001   7.75711287E-001   9.79433004E-001
   2.05000000E+002   9.80756525E-001   7.75712271E-001   9.80726600E-001
   2.10000000E+002   9.81939474E-001   7.75713119E-001   9.81912904E-001
   2.15000000E+002   9.83020904E-001   7.75713853E-001   9.82997248E-001
   2.20000000E+002   9.84040000E-001   7.75714491E-001   9.84018885E-001
   2.25000000E+002   9.84980940E-001   7.75715047E-001   9.84962045E-001
   2.30000000E+002   9.85859499E-001   7.75715533E-001   9.85842551E-001
   2.35000000E+002   9.86696242E-001   7.75715959E-001   9.86681004E-001
   2.40000000E+002   9.87453070E-001   7.75716334E-001   9.87439341E-001
   2.45000000E+002   9.88168538E-001   7.75716665E-001   9.88156143E-001
