# ./jetvheto -in n3lo-fixed-order/H125-LHC13-R04-mb-0-mt-1725-xmur025-xmuf050-log.fxd -xQ 0.25 -out benchmarks-n3lo-smallR/H125-LHC13-R04-mb-0-mt-1725-xmur025-xmuf050-xQ025-NNLO+NNLLb.R0-1.0.res -scheme b -order 2 -ptmax 500.01 -small-r -fixed_order 2 -loop-mass t -R0 1.0
# process = H    
# collider = pp   
# rts =  13000.000
# M   =    125.000
# muR =     31.250
# muF =     62.500
# Q   =     31.250
# p   =      5.000
# include_c1_squared =   F
# loop_mass  = t   
# alphas(MZ) =    0.11800
# alphas(M) =    0.11264
# alphas(muR) =    0.14091
# Rjet =      0.400
# order = NNLL
# pdf name and set = PDF4LHC15_nnlo_mc.LHgrid,    0
# matching scheme = b
# total cross sections [nb] at LO, NLOdiff, NNLOdiff, N3LOdiff =     0.019855    0.024744    0.005009   -0.002663
#----------------------------------------------------------------------
# the lines that follow give the jet-veto efficiencies as a function of pt
#         pt            matched eff      resummed eff     fixed-order eff
   2.00000000E+001   4.07936187E-001   4.49542574E-001   3.69272721E-001
   2.50000000E+001   4.91882175E-001   5.11593703E-001   4.69726360E-001
   3.00000000E+001   5.61796700E-001   5.48248814E-001   5.49511805E-001
   3.50000000E+001   6.20663819E-001   5.68263767E-001   6.13864488E-001
   4.00000000E+001   6.70359666E-001   5.78799940E-001   6.66517199E-001
   4.50000000E+001   7.12423587E-001   5.84374919E-001   7.10176284E-001
   5.00000000E+001   7.48424795E-001   5.87413816E-001   7.47057362E-001
   5.50000000E+001   7.78805100E-001   5.89136343E-001   7.77941942E-001
   6.00000000E+001   8.04937444E-001   5.90152745E-001   8.04372457E-001
   6.50000000E+001   8.27516549E-001   5.90775567E-001   8.27134891E-001
   7.00000000E+001   8.47118381E-001   5.91170495E-001   8.46853484E-001
   7.50000000E+001   8.64000546E-001   5.91428681E-001   8.63811915E-001
   8.00000000E+001   8.78825890E-001   5.91602117E-001   8.78688651E-001
   8.50000000E+001   8.91859019E-001   5.91721470E-001   8.91757209E-001
   9.00000000E+001   9.03328990E-001   5.91805391E-001   9.03252169E-001
   9.50000000E+001   9.13317917E-001   5.91865549E-001   9.13259014E-001
   1.00000000E+002   9.22275327E-001   5.91909427E-001   9.22229539E-001
   1.05000000E+002   9.30072891E-001   5.91941934E-001   9.30036845E-001
   1.10000000E+002   9.37042715E-001   5.91966364E-001   9.37014025E-001
   1.15000000E+002   9.43261422E-001   5.91984961E-001   9.43238345E-001
   1.20000000E+002   9.48836413E-001   5.91999286E-001   9.48817676E-001
   1.25000000E+002   9.53880372E-001   5.92010442E-001   9.53865028E-001
   1.30000000E+002   9.58302579E-001   5.92019217E-001   9.58289911E-001
   1.35000000E+002   9.62301735E-001   5.92026182E-001   9.62291205E-001
   1.40000000E+002   9.65923796E-001   5.92031759E-001   9.65914981E-001
   1.45000000E+002   9.69184951E-001   5.92036260E-001   9.69177523E-001
   1.50000000E+002   9.72169629E-001   5.92039919E-001   9.72163335E-001
   1.55000000E+002   9.74836657E-001   5.92042915E-001   9.74831295E-001
   1.60000000E+002   9.77249828E-001   5.92045383E-001   9.77245237E-001
   1.65000000E+002   9.79413036E-001   5.92047430E-001   9.79409086E-001
   1.70000000E+002   9.81402432E-001   5.92049135E-001   9.81399018E-001
   1.75000000E+002   9.83209596E-001   5.92050565E-001   9.83206634E-001
   1.80000000E+002   9.84813413E-001   5.92051770E-001   9.84810833E-001
   1.85000000E+002   9.86295546E-001   5.92052789E-001   9.86293290E-001
   1.90000000E+002   9.87649265E-001   5.92053656E-001   9.87647285E-001
   1.95000000E+002   9.88870250E-001   5.92054396E-001   9.88868507E-001
   2.00000000E+002   9.89981615E-001   5.92055030E-001   9.89980075E-001
   2.05000000E+002   9.91001613E-001   5.92055577E-001   9.91000249E-001
   2.10000000E+002   9.91900460E-001   5.92056048E-001   9.91899248E-001
   2.15000000E+002   9.92756498E-001   5.92056457E-001   9.92755418E-001
   2.20000000E+002   9.93535154E-001   5.92056813E-001   9.93534190E-001
   2.25000000E+002   9.94207159E-001   5.92057123E-001   9.94206295E-001
   2.30000000E+002   9.94889792E-001   5.92057395E-001   9.94889017E-001
   2.35000000E+002   9.95458743E-001   5.92057633E-001   9.95458046E-001
   2.40000000E+002   9.95995882E-001   5.92057843E-001   9.95995254E-001
   2.45000000E+002   9.96486208E-001   5.92058028E-001   9.96485640E-001
