# ./jetvheto -in n3lo-fixed-order/H125-LHC13-R04-mb-0-mt-1725-xmur100-xmuf100-log.fxd -xQ 0.75 -out benchmarks-n3lo-smallR/H125-LHC13-R04-mb-0-mt-1725-xmur100-xmuf100-xQ075-N3LO+NNLLb.R0-1.0.res -scheme b -order 2 -ptmax 500.01 -small-r -fixed_order 3 -loop-mass t -R0 1.0
# process = H    
# collider = pp   
# rts =  13000.000
# M   =    125.000
# muR =    125.000
# muF =    125.000
# Q   =     93.750
# p   =      5.000
# include_c1_squared =   F
# loop_mass  = t   
# alphas(MZ) =    0.11800
# alphas(M) =    0.11264
# alphas(muR) =    0.11264
# Rjet =      0.400
# order = NNLL
# pdf name and set = PDF4LHC15_nnlo_mc.LHgrid,    0
# matching scheme = b
# total cross sections [nb] at LO, NLOdiff, NNLOdiff, N3LOdiff =     0.013801    0.017514    0.010146    0.003834
#----------------------------------------------------------------------
# the lines that follow give the jet-veto efficiencies as a function of pt
#         pt            matched eff      resummed eff     fixed-order eff
   2.00000000E+001   4.57176990E-001   5.52866183E-001   4.21593782E-001
   2.50000000E+001   5.42278692E-001   6.38654066E-001   5.13960990E-001
   3.00000000E+001   6.14143431E-001   6.99454453E-001   5.91015610E-001
   3.50000000E+001   6.70519789E-001   7.42216089E-001   6.50645918E-001
   4.00000000E+001   7.16251284E-001   7.71866384E-001   6.98836983E-001
   4.50000000E+001   7.53295848E-001   7.91908272E-001   7.37928057E-001
   5.00000000E+001   7.84614250E-001   8.04854845E-001   7.71030473E-001
   5.50000000E+001   8.11268617E-001   8.12567727E-001   7.99275639E-001
   6.00000000E+001   8.33595250E-001   8.16459384E-001   8.23059681E-001
   6.50000000E+001   8.53478447E-001   8.17626900E-001   8.44243758E-001
   7.00000000E+001   8.70096077E-001   8.16931357E-001   8.62070819E-001
   7.50000000E+001   8.83824118E-001   8.15045781E-001   8.76925464E-001
   8.00000000E+001   8.95860277E-001   8.12488446E-001   8.89967148E-001
   8.50000000E+001   9.06742523E-001   8.09643331E-001   9.01728487E-001
   9.00000000E+001   9.15983536E-001   8.06779338E-001   9.11747759E-001
   9.50000000E+001   9.24481793E-001   8.04068633E-001   9.20909613E-001
   1.00000000E+002   9.31574654E-001   8.01607846E-001   9.28579537E-001
   1.05000000E+002   9.37963962E-001   7.99438655E-001   9.35454626E-001
   1.10000000E+002   9.43732059E-001   7.97566077E-001   9.41628668E-001
   1.15000000E+002   9.48941731E-001   7.95973200E-001   9.47177133E-001
   1.20000000E+002   9.53478386E-001   7.94631727E-001   9.51996886E-001
   1.25000000E+002   9.57419472E-001   7.93509255E-001   9.56173934E-001
   1.30000000E+002   9.61409376E-001   7.92573556E-001   9.60356305E-001
   1.35000000E+002   9.64900918E-001   7.91794885E-001   9.64008440E-001
   1.40000000E+002   9.67849694E-001   7.91147003E-001   9.67091995E-001
   1.45000000E+002   9.70681132E-001   7.90607420E-001   9.70034899E-001
   1.50000000E+002   9.73080036E-001   7.90157224E-001   9.72527497E-001
   1.55000000E+002   9.75687846E-001   7.89780703E-001   9.75212455E-001
   1.60000000E+002   9.77449909E-001   7.89464913E-001   9.77041107E-001
   1.65000000E+002   9.79351577E-001   7.89199235E-001   9.78998050E-001
   1.70000000E+002   9.81016237E-001   7.88974983E-001   9.80709596E-001
   1.75000000E+002   9.82637696E-001   7.88785055E-001   9.82370623E-001
   1.80000000E+002   9.84128560E-001   7.88623646E-001   9.83895197E-001
   1.85000000E+002   9.85469045E-001   7.88486003E-001   9.85264523E-001
   1.90000000E+002   9.86404917E-001   7.88368225E-001   9.86225466E-001
   1.95000000E+002   9.87614793E-001   7.88267109E-001   9.87456496E-001
   2.00000000E+002   9.88641063E-001   7.88180012E-001   9.88501106E-001
   2.05000000E+002   9.89523994E-001   7.88104749E-001   9.89399966E-001
   2.10000000E+002   9.90314314E-001   7.88039510E-001   9.90204115E-001
   2.15000000E+002   9.91193979E-001   7.87982788E-001   9.91095719E-001
   2.20000000E+002   9.91829531E-001   7.87933327E-001   9.91741805E-001
   2.25000000E+002   9.92500864E-001   7.87890074E-001   9.92422310E-001
   2.30000000E+002   9.93127105E-001   7.87852147E-001   9.93056602E-001
   2.35000000E+002   9.93706919E-001   7.87818800E-001   9.93643503E-001
   2.40000000E+002   9.94098878E-001   7.87789406E-001   9.94041766E-001
   2.45000000E+002   9.94626990E-001   7.87763431E-001   9.94575393E-001
