# ./jetvheto -in n3lo-fixed-order/H125-LHC13-R04-mb-0-mt-1725-xmur050-xmuf050-log.fxd -xQ 0.25 -out benchmarks-n3lo-smallR/H125-LHC13-R04-mb-0-mt-1725-xmur050-xmuf050-xQ025-NNLO+NNLLb.R0-1.5.res -scheme b -order 2 -ptmax 500.01 -small-r -fixed_order 2 -loop-mass t -R0 1.5
# process = H    
# collider = pp   
# rts =  13000.000
# M   =    125.000
# muR =     62.500
# muF =     62.500
# Q   =     31.250
# p   =      5.000
# include_c1_squared =   F
# loop_mass  = t   
# alphas(MZ) =    0.11800
# alphas(M) =    0.11264
# alphas(muR) =    0.12516
# Rjet =      0.400
# order = NNLL
# pdf name and set = PDF4LHC15_nnlo_mc.LHgrid,    0
# matching scheme = b
# total cross sections [nb] at LO, NLOdiff, NNLOdiff, N3LOdiff =     0.015885    0.020561    0.008998    0.001413
#----------------------------------------------------------------------
# the lines that follow give the jet-veto efficiencies as a function of pt
#         pt            matched eff      resummed eff     fixed-order eff
   2.00000000E+001   3.90572339E-001   4.96921280E-001   3.37968833E-001
   2.50000000E+001   4.73429903E-001   5.65963735E-001   4.45490403E-001
   3.00000000E+001   5.43523509E-001   6.06850462E-001   5.29094091E-001
   3.50000000E+001   6.03295223E-001   6.29212787E-001   5.95850260E-001
   4.00000000E+001   6.54052427E-001   6.40996412E-001   6.50115846E-001
   4.50000000E+001   6.97104136E-001   6.47235016E-001   6.94939270E-001
   5.00000000E+001   7.34013195E-001   6.50636744E-001   7.32769177E-001
   5.50000000E+001   7.65108147E-001   6.52565285E-001   7.64361916E-001
   6.00000000E+001   7.91931364E-001   6.53703370E-001   7.91465371E-001
   6.50000000E+001   8.15139672E-001   6.54400802E-001   8.14838120E-001
   7.00000000E+001   8.35279973E-001   6.54843056E-001   8.35078651E-001
   7.50000000E+001   8.52708995E-001   6.55132191E-001   8.52570605E-001
   8.00000000E+001   8.68034911E-001   6.55326419E-001   8.67937405E-001
   8.50000000E+001   8.81548386E-001   6.55460082E-001   8.81478135E-001
   9.00000000E+001   8.93463454E-001   6.55554066E-001   8.93411828E-001
   9.50000000E+001   9.03906663E-001   6.55621438E-001   9.03868009E-001
   1.00000000E+002   9.13295392E-001   6.55670577E-001   9.13265993E-001
   1.05000000E+002   9.21512089E-001   6.55706983E-001   9.21489390E-001
   1.10000000E+002   9.28865594E-001   6.55734342E-001   9.28847842E-001
   1.15000000E+002   9.35465344E-001   6.55755169E-001   9.35451292E-001
   1.20000000E+002   9.41404732E-001   6.55771213E-001   9.41393487E-001
   1.25000000E+002   9.46799543E-001   6.55783707E-001   9.46790455E-001
   1.30000000E+002   9.51563749E-001   6.55793534E-001   9.51556334E-001
   1.35000000E+002   9.55868133E-001   6.55801335E-001   9.55862035E-001
   1.40000000E+002   9.59793761E-001   6.55807580E-001   9.59788706E-001
   1.45000000E+002   9.63361181E-001   6.55812621E-001   9.63356960E-001
   1.50000000E+002   9.66627287E-001   6.55816719E-001   9.66623739E-001
   1.55000000E+002   9.69562478E-001   6.55820074E-001   9.69559478E-001
   1.60000000E+002   9.72230704E-001   6.55822838E-001   9.72228153E-001
   1.65000000E+002   9.74641391E-001   6.55825130E-001   9.74639208E-001
   1.70000000E+002   9.76858956E-001   6.55827040E-001   9.76857081E-001
   1.75000000E+002   9.78871277E-001   6.55828642E-001   9.78869658E-001
   1.80000000E+002   9.80683867E-001   6.55829990E-001   9.80682463E-001
   1.85000000E+002   9.82362951E-001   6.55831132E-001   9.82361728E-001
   1.90000000E+002   9.83897899E-001   6.55832103E-001   9.83896830E-001
   1.95000000E+002   9.85297910E-001   6.55832932E-001   9.85296972E-001
   2.00000000E+002   9.86579184E-001   6.55833642E-001   9.86578358E-001
   2.05000000E+002   9.87753398E-001   6.55834254E-001   9.87752669E-001
   2.10000000E+002   9.88805095E-001   6.55834782E-001   9.88804449E-001
   2.15000000E+002   9.89800502E-001   6.55835240E-001   9.89799927E-001
   2.20000000E+002   9.90709953E-001   6.55835639E-001   9.90709441E-001
   2.25000000E+002   9.91517504E-001   6.55835986E-001   9.91517046E-001
   2.30000000E+002   9.92310911E-001   6.55836290E-001   9.92310501E-001
   2.35000000E+002   9.92993254E-001   6.55836557E-001   9.92992886E-001
   2.40000000E+002   9.93638534E-001   6.55836792E-001   9.93638203E-001
   2.45000000E+002   9.94228666E-001   6.55837000E-001   9.94228366E-001
