# ./jetvheto -in n3lo-fixed-order/H125-LHC13-R04-mb-475-mt-1725-xmur100-xmuf050-log.fxd -xQ 0.25 -out benchmarks-n3lo-smallR/H125-LHC13-R04-mb-475-mt-1725-xmur100-xmuf050-xQ025-N3LO+NNLLa.R0-1.0.res -scheme a -order 2 -ptmax 500.01 -fixed_order 3 -small-r -loop-mass t+b -R0 1.0
# process = H    
# collider = pp   
# rts =  13000.000
# M   =    125.000
# muR =    125.000
# muF =     62.500
# Q   =     31.250
# p   =      5.000
# include_c1_squared =   F
# loop_mass  = t+b 
# alphas(MZ) =    0.11800
# alphas(M) =    0.11264
# alphas(muR) =    0.11264
# Rjet =      0.400
# order = NNLL
# pdf name and set = PDF4LHC15_nnlo_mc.LHgrid,    0
# matching scheme = a
# total cross sections [nb] at LO, NLOdiff, NNLOdiff, N3LOdiff =     0.011575    0.016866    0.010424    0.004163
#----------------------------------------------------------------------
# the lines that follow give the jet-veto efficiencies as a function of pt
#         pt            matched eff      resummed eff     fixed-order eff
   2.00000000E+001   4.46389374E-001   5.09817578E-001   4.53573922E-001
   2.50000000E+001   5.33171001E-001   5.81234634E-001   5.38019533E-001
   3.00000000E+001   6.04875414E-001   6.23543485E-001   6.08084402E-001
   3.50000000E+001   6.62098813E-001   6.46687747E-001   6.64092911E-001
   4.00000000E+001   7.07250696E-001   6.58884490E-001   7.08459732E-001
   4.50000000E+001   7.46054524E-001   6.65342106E-001   7.46824661E-001
   5.00000000E+001   7.77705331E-001   6.68863340E-001   7.78201838E-001
   5.50000000E+001   8.04922412E-001   6.70859659E-001   8.05254341E-001
   6.00000000E+001   8.27659232E-001   6.72037751E-001   8.27885254E-001
   6.50000000E+001   8.48085155E-001   6.72759702E-001   8.48244754E-001
   7.00000000E+001   8.64680865E-001   6.73217507E-001   8.64794164E-001
   7.50000000E+001   8.79326726E-001   6.73516808E-001   8.79409129E-001
   8.00000000E+001   8.92430404E-001   6.73717866E-001   8.92491595E-001
   8.50000000E+001   9.04056679E-001   6.73856229E-001   9.04102870E-001
   9.00000000E+001   9.14257389E-001   6.73953518E-001   9.14292757E-001
   9.50000000E+001   9.22768322E-001   6.74023259E-001   9.22795598E-001
   1.00000000E+002   9.30658674E-001   6.74074126E-001   9.30680042E-001
   1.05000000E+002   9.37279662E-001   6.74111813E-001   9.37296509E-001
   1.10000000E+002   9.43255013E-001   6.74140134E-001   9.43268451E-001
   1.15000000E+002   9.48811431E-001   6.74161693E-001   9.48822273E-001
   1.20000000E+002   9.53786637E-001   6.74178301E-001   9.53795459E-001
   1.25000000E+002   9.58083928E-001   6.74191235E-001   9.58091146E-001
   1.30000000E+002   9.61858177E-001   6.74201407E-001   9.61864125E-001
   1.35000000E+002   9.65466123E-001   6.74209482E-001   9.65471069E-001
   1.40000000E+002   9.68752309E-001   6.74215948E-001   9.68756448E-001
   1.45000000E+002   9.71639549E-001   6.74221166E-001   9.71643032E-001
   1.50000000E+002   9.74054737E-001   6.74225408E-001   9.74057675E-001
   1.55000000E+002   9.76557344E-001   6.74228881E-001   9.76559846E-001
   1.60000000E+002   9.78808648E-001   6.74231743E-001   9.78810789E-001
   1.65000000E+002   9.80455824E-001   6.74234115E-001   9.80457656E-001
   1.70000000E+002   9.82260889E-001   6.74236092E-001   9.82262469E-001
   1.75000000E+002   9.83948973E-001   6.74237750E-001   9.83950342E-001
   1.80000000E+002   9.85327458E-001   6.74239146E-001   9.85328648E-001
   1.85000000E+002   9.86603861E-001   6.74240328E-001   9.86604898E-001
   1.90000000E+002   9.87842777E-001   6.74241333E-001   9.87843685E-001
   1.95000000E+002   9.88980119E-001   6.74242191E-001   9.88980917E-001
   2.00000000E+002   9.89997105E-001   6.74242926E-001   9.89997809E-001
   2.05000000E+002   9.90861525E-001   6.74243560E-001   9.90862147E-001
   2.10000000E+002   9.91684256E-001   6.74244107E-001   9.91684807E-001
   2.15000000E+002   9.92387303E-001   6.74244581E-001   9.92387793E-001
   2.20000000E+002   9.93216698E-001   6.74244993E-001   9.93217135E-001
   2.25000000E+002   9.93760097E-001   6.74245353E-001   9.93760488E-001
   2.30000000E+002   9.94353598E-001   6.74245668E-001   9.94353948E-001
   2.35000000E+002   9.94831127E-001   6.74245944E-001   9.94831441E-001
   2.40000000E+002   9.95312429E-001   6.74246187E-001   9.95312711E-001
   2.45000000E+002   9.95811890E-001   6.74246402E-001   9.95812145E-001
