# ./jetvheto -in n3lo-fixed-order/H125-LHC13-R04-mb-475-mt-1725-xmur100-xmuf100-log.fxd -xQ 0.5 -out benchmarks-n3lo-smallR/H125-LHC13-R04-mb-475-mt-1725-xmur100-xmuf100-xQ050-NNLO+NNLLa.R0-1.0.res -scheme a -order 2 -ptmax 500.01 -fixed_order 2 -small-r -loop-mass t+b -R0 1.0
# process = H    
# collider = pp   
# rts =  13000.000
# M   =    125.000
# muR =    125.000
# muF =    125.000
# Q   =     62.500
# p   =      5.000
# include_c1_squared =   F
# loop_mass  = t+b 
# alphas(MZ) =    0.11800
# alphas(M) =    0.11264
# alphas(muR) =    0.11264
# Rjet =      0.400
# order = NNLL
# pdf name and set = PDF4LHC15_nnlo_mc.LHgrid,    0
# matching scheme = a
# total cross sections [nb] at LO, NLOdiff, NNLOdiff, N3LOdiff =     0.012292    0.016994    0.010146    0.003834
#----------------------------------------------------------------------
# the lines that follow give the jet-veto efficiencies as a function of pt
#         pt            matched eff      resummed eff     fixed-order eff
   2.00000000E+001   4.75535834E-001   5.02871863E-001   4.93150502E-001
   2.50000000E+001   5.64448065E-001   5.82142124E-001   5.75024850E-001
   3.00000000E+001   6.34151479E-001   6.38303297E-001   6.38301171E-001
   3.50000000E+001   6.89382229E-001   6.77601555E-001   6.88801162E-001
   4.00000000E+001   7.33311502E-001   7.04586119E-001   7.29800784E-001
   4.50000000E+001   7.68676407E-001   7.22643220E-001   7.63713984E-001
   5.00000000E+001   7.97500601E-001   7.34356989E-001   7.92155543E-001
   5.50000000E+001   8.21229399E-001   7.41712804E-001   8.16168137E-001
   6.00000000E+001   8.41238389E-001   7.46202690E-001   8.36797648E-001
   6.50000000E+001   8.58299228E-001   7.48890735E-001   8.54584097E-001
   7.00000000E+001   8.72983435E-001   7.50487791E-001   8.69965602E-001
   7.50000000E+001   8.85764437E-001   7.51440872E-001   8.83354565E-001
   8.00000000E+001   8.97059162E-001   7.52018129E-001   8.95150407E-001
   8.50000000E+001   9.06954583E-001   7.52375563E-001   9.05446499E-001
   9.00000000E+001   9.15824158E-001   7.52602853E-001   9.14630889E-001
   9.50000000E+001   9.23656564E-001   7.52751558E-001   9.22708788E-001
   1.00000000E+002   9.30650064E-001   7.52851650E-001   9.29893229E-001
   1.05000000E+002   9.36939197E-001   7.52920863E-001   9.36331059E-001
   1.10000000E+002   9.42500219E-001   7.52969933E-001   9.42008406E-001
   1.15000000E+002   9.47556384E-001   7.53005514E-001   9.47155949E-001
   1.20000000E+002   9.52037895E-001   7.53031840E-001   9.51709725E-001
   1.25000000E+002   9.56148359E-001   7.53051670E-001   9.55877636E-001
   1.30000000E+002   9.59845465E-001   7.53066845E-001   9.59620741E-001
   1.35000000E+002   9.63209422E-001   7.53078623E-001   9.63021762E-001
   1.40000000E+002   9.66226308E-001   7.53087879E-001   9.66068699E-001
   1.45000000E+002   9.69019958E-001   7.53095235E-001   9.68886869E-001
   1.50000000E+002   9.71512163E-001   7.53101140E-001   9.71399196E-001
   1.55000000E+002   9.73818312E-001   7.53105923E-001   9.73721950E-001
   1.60000000E+002   9.75905179E-001   7.53109829E-001   9.75822606E-001
   1.65000000E+002   9.77812303E-001   7.53113043E-001   9.77741229E-001
   1.70000000E+002   9.79562455E-001   7.53115707E-001   9.79501024E-001
   1.75000000E+002   9.81143195E-001   7.53117927E-001   9.81089888E-001
   1.80000000E+002   9.82598724E-001   7.53119790E-001   9.82552292E-001
   1.85000000E+002   9.83928133E-001   7.53121360E-001   9.83887543E-001
   1.90000000E+002   9.85152091E-001   7.53122691E-001   9.85116487E-001
   1.95000000E+002   9.86294566E-001   7.53123824E-001   9.86263234E-001
   2.00000000E+002   9.87328592E-001   7.53124794E-001   9.87300933E-001
   2.05000000E+002   9.88289546E-001   7.53125626E-001   9.88265058E-001
   2.10000000E+002   9.89166332E-001   7.53126344E-001   9.89144590E-001
   2.15000000E+002   9.89956444E-001   7.53126966E-001   9.89937088E-001
   2.20000000E+002   9.90702192E-001   7.53127505E-001   9.90684915E-001
   2.25000000E+002   9.91384223E-001   7.53127976E-001   9.91368764E-001
   2.30000000E+002   9.92013166E-001   7.53128387E-001   9.91999301E-001
   2.35000000E+002   9.92601610E-001   7.53128748E-001   9.92589146E-001
   2.40000000E+002   9.93130013E-001   7.53129065E-001   9.93118784E-001
   2.45000000E+002   9.93631185E-001   7.53129345E-001   9.93621047E-001
