# ./jetvheto -in n3lo-fixed-order/H125-LHC13-R04-heft-xmur100-xmuf100-log.fxd -xQ 0.333 -out benchmarks-n3lo-smallR/H125-LHC13-R04-heft-xmur100-xmuf100-xQ033-NNLO+NNLLb.R0-1.0.res -scheme b -order 2 -ptmax 500.01 -fixed_order 2 -small-r -R0 1.0
# process = H    
# collider = pp   
# rts =  13000.000
# M   =    125.000
# muR =    125.000
# muF =    125.000
# Q   =     41.625
# p   =      5.000
# include_c1_squared =   F
# loop_mass  = none
# alphas(MZ) =    0.11800
# alphas(M) =    0.11264
# alphas(muR) =    0.11264
# Rjet =      0.400
# order = NNLL
# pdf name and set = PDF4LHC15_nnlo_mc.LHgrid,    0
# matching scheme = b
# total cross sections [nb] at LO, NLOdiff, NNLOdiff, N3LOdiff =     0.012945    0.016716    0.010146    0.003834
#----------------------------------------------------------------------
# the lines that follow give the jet-veto efficiencies as a function of pt
#         pt            matched eff      resummed eff     fixed-order eff
   2.00000000E+001   4.02489026E-001   5.20940696E-001   3.33152974E-001
   2.50000000E+001   4.84366527E-001   6.00057631E-001   4.42354030E-001
   3.00000000E+001   5.51858772E-001   6.53449400E-001   5.26280770E-001
   3.50000000E+001   6.08132390E-001   6.87973988E-001   5.92590428E-001
   4.00000000E+001   6.55847597E-001   7.09367041E-001   6.46413459E-001
   4.50000000E+001   6.96419396E-001   7.22235374E-001   6.90650611E-001
   5.00000000E+001   7.31219120E-001   7.29899103E-001   7.27636368E-001
   5.50000000E+001   7.61098890E-001   7.34498773E-001   7.58824117E-001
   6.00000000E+001   7.86988859E-001   7.37312587E-001   7.85509225E-001
   6.50000000E+001   8.09489013E-001   7.39076617E-001   8.08501674E-001
   7.00000000E+001   8.28983830E-001   7.40211696E-001   8.28308351E-001
   7.50000000E+001   8.46075630E-001   7.40960926E-001   8.45602652E-001
   8.00000000E+001   8.61080911E-001   7.41467470E-001   8.60742611E-001
   8.50000000E+001   8.74229775E-001   7.41817595E-001   8.73982907E-001
   9.00000000E+001   8.85946182E-001   7.42064541E-001   8.85762882E-001
   9.50000000E+001   8.96267405E-001   7.42241950E-001   8.96129047E-001
   1.00000000E+002   9.05453610E-001   7.42371551E-001   9.05347624E-001
   1.05000000E+002   9.13656999E-001   7.42467683E-001   9.13574722E-001
   1.10000000E+002   9.20953999E-001   7.42539988E-001   9.20889329E-001
   1.15000000E+002   9.27547171E-001   7.42595067E-001   9.27495781E-001
   1.20000000E+002   9.33448826E-001   7.42637517E-001   9.33407561E-001
   1.25000000E+002   9.38773272E-001   7.42670587E-001   9.38739831E-001
   1.30000000E+002   9.43571626E-001   7.42696606E-001   9.43544289E-001
   1.35000000E+002   9.47944549E-001   7.42717266E-001   9.47922026E-001
   1.40000000E+002   9.51852007E-001   7.42733811E-001   9.51833307E-001
   1.45000000E+002   9.55473560E-001   7.42747165E-001   9.55457933E-001
   1.50000000E+002   9.58699640E-001   7.42758024E-001   9.58686494E-001
   1.55000000E+002   9.61661647E-001   7.42766914E-001   9.61650523E-001
   1.60000000E+002   9.64389622E-001   7.42774240E-001   9.64380158E-001
   1.65000000E+002   9.66861374E-001   7.42780313E-001   9.66853279E-001
   1.70000000E+002   9.69153492E-001   7.42785376E-001   9.69146535E-001
   1.75000000E+002   9.71224363E-001   7.42789621E-001   9.71218357E-001
   1.80000000E+002   9.73151256E-001   7.42793196E-001   9.73146048E-001
   1.85000000E+002   9.74902968E-001   7.42796222E-001   9.74898433E-001
   1.90000000E+002   9.76522950E-001   7.42798796E-001   9.76518987E-001
   1.95000000E+002   9.78044857E-001   7.42800993E-001   9.78041382E-001
   2.00000000E+002   9.79436063E-001   7.42802877E-001   9.79433004E-001
   2.05000000E+002   9.80729300E-001   7.42804499E-001   9.80726600E-001
   2.10000000E+002   9.81915296E-001   7.42805899E-001   9.81912904E-001
   2.15000000E+002   9.82999373E-001   7.42807113E-001   9.82997248E-001
   2.20000000E+002   9.84020778E-001   7.42808169E-001   9.84018885E-001
   2.25000000E+002   9.84963736E-001   7.42809091E-001   9.84962045E-001
   2.30000000E+002   9.85844065E-001   7.42809897E-001   9.85842551E-001
   2.35000000E+002   9.86682363E-001   7.42810605E-001   9.86681004E-001
   2.40000000E+002   9.87440564E-001   7.42811228E-001   9.87439341E-001
   2.45000000E+002   9.88157245E-001   7.42811777E-001   9.88156143E-001
