# ./jetvheto -in n3lo-fixed-order/H125-LHC13-R04-mb-0-mt-1725-xmur100-xmuf100-log.fxd -xQ 0.125 -out benchmarks-n3lo-smallR/H125-LHC13-R04-mb-0-mt-1725-xmur100-xmuf100-xQ0125-NNLO+NNLLa.R0-1.5.res -scheme a -order 2 -ptmax 500.01 -small-r -fixed_order 2 -loop-mass t -R0 1.5
# process = H    
# collider = pp   
# rts =  13000.000
# M   =    125.000
# muR =    125.000
# muF =    125.000
# Q   =     15.625
# p   =      5.000
# include_c1_squared =   F
# loop_mass  = t   
# alphas(MZ) =    0.11800
# alphas(M) =    0.11264
# alphas(muR) =    0.11264
# Rjet =      0.400
# order = NNLL
# pdf name and set = PDF4LHC15_nnlo_mc.LHgrid,    0
# matching scheme = a
# total cross sections [nb] at LO, NLOdiff, NNLOdiff, N3LOdiff =     0.013801    0.017514    0.010146    0.003834
#----------------------------------------------------------------------
# the lines that follow give the jet-veto efficiencies as a function of pt
#         pt            matched eff      resummed eff     fixed-order eff
   2.00000000E+001   5.09914812E-001   5.19024463E-001   5.12111256E-001
   2.50000000E+001   5.91814939E-001   5.34763949E-001   5.93117916E-001
   3.00000000E+001   6.54464182E-001   5.39883689E-001   6.55183932E-001
   3.50000000E+001   7.03905952E-001   5.41800989E-001   7.04312652E-001
   4.00000000E+001   7.43872583E-001   5.42616583E-001   7.44112204E-001
   4.50000000E+001   7.76593998E-001   5.43001204E-001   7.76741158E-001
   5.00000000E+001   8.03905824E-001   5.43198180E-001   8.03999724E-001
   5.50000000E+001   8.26894529E-001   5.43306019E-001   8.26956486E-001
   6.00000000E+001   8.46540290E-001   5.43368387E-001   8.46582419E-001
   6.50000000E+001   8.63420225E-001   5.43406147E-001   8.63449624E-001
   7.00000000E+001   8.77931942E-001   5.43429911E-001   8.77952928E-001
   7.50000000E+001   8.90642346E-001   5.43445373E-001   8.90657633E-001
   8.00000000E+001   9.01773248E-001   5.43455727E-001   9.01784587E-001
   8.50000000E+001   9.11489937E-001   5.43462836E-001   9.11498483E-001
   9.00000000E+001   9.20091291E-001   5.43467827E-001   9.20097826E-001
   9.50000000E+001   9.27661307E-001   5.43471402E-001   9.27666371E-001
   1.00000000E+002   9.34413075E-001   5.43474007E-001   9.34417045E-001
   1.05000000E+002   9.40430975E-001   5.43475935E-001   9.40434122E-001
   1.10000000E+002   9.45746471E-001   5.43477384E-001   9.45748990E-001
   1.15000000E+002   9.50567318E-001   5.43478487E-001   9.50569353E-001
   1.20000000E+002   9.54865704E-001   5.43479336E-001   9.54867362E-001
   1.25000000E+002   9.58752132E-001   5.43479997E-001   9.58753493E-001
   1.30000000E+002   9.62266766E-001   5.43480517E-001   9.62267892E-001
   1.35000000E+002   9.65428482E-001   5.43480930E-001   9.65429419E-001
   1.40000000E+002   9.68287196E-001   5.43481260E-001   9.68287981E-001
   1.45000000E+002   9.70915297E-001   5.43481527E-001   9.70915959E-001
   1.50000000E+002   9.73259015E-001   5.43481744E-001   9.73259576E-001
   1.55000000E+002   9.75426279E-001   5.43481921E-001   9.75426757E-001
   1.60000000E+002   9.77405181E-001   5.43482068E-001   9.77405590E-001
   1.65000000E+002   9.79195816E-001   5.43482189E-001   9.79196168E-001
   1.70000000E+002   9.80841413E-001   5.43482290E-001   9.80841717E-001
   1.75000000E+002   9.82320289E-001   5.43482374E-001   9.82320552E-001
   1.80000000E+002   9.83692098E-001   5.43482446E-001   9.83692327E-001
   1.85000000E+002   9.84936290E-001   5.43482506E-001   9.84936490E-001
   1.90000000E+002   9.86088855E-001   5.43482557E-001   9.86089030E-001
   1.95000000E+002   9.87154568E-001   5.43482601E-001   9.87154723E-001
   2.00000000E+002   9.88119977E-001   5.43482639E-001   9.88120114E-001
   2.05000000E+002   9.89021532E-001   5.43482671E-001   9.89021653E-001
   2.10000000E+002   9.89836277E-001   5.43482699E-001   9.89836384E-001
   2.15000000E+002   9.90579539E-001   5.43482723E-001   9.90579634E-001
   2.20000000E+002   9.91277057E-001   5.43482744E-001   9.91277142E-001
   2.25000000E+002   9.91915060E-001   5.43482763E-001   9.91915136E-001
   2.30000000E+002   9.92505863E-001   5.43482779E-001   9.92505931E-001
   2.35000000E+002   9.93060118E-001   5.43482793E-001   9.93060180E-001
   2.40000000E+002   9.93557283E-001   5.43482805E-001   9.93557338E-001
   2.45000000E+002   9.94025057E-001   5.43482816E-001   9.94025107E-001
