# ./jetvheto -in n3lo-fixed-order/H125-LHC13-R04-heft-xmur100-xmuf100-log.fxd -xQ 1.00 -out benchmarks-n3lo-smallR/H125-LHC13-R04-heft-xmur100-xmuf100-xQ100-N3LO+NNLLb.R0-2.0.res -scheme b -order 2 -ptmax 500.01 -fixed_order 3 -small-r -R0 2.0
# process = H    
# collider = pp   
# rts =  13000.000
# M   =    125.000
# muR =    125.000
# muF =    125.000
# Q   =    125.000
# p   =      5.000
# include_c1_squared =   F
# loop_mass  = none
# alphas(MZ) =    0.11800
# alphas(M) =    0.11264
# alphas(muR) =    0.11264
# Rjet =      0.400
# order = NNLL
# pdf name and set = PDF4LHC15_nnlo_mc.LHgrid,    0
# matching scheme = b
# total cross sections [nb] at LO, NLOdiff, NNLOdiff, N3LOdiff =     0.012945    0.016716    0.010146    0.003834
#----------------------------------------------------------------------
# the lines that follow give the jet-veto efficiencies as a function of pt
#         pt            matched eff      resummed eff     fixed-order eff
   2.00000000E+001   4.75595925E-001   6.21374704E-001   4.08842854E-001
   2.50000000E+001   5.56921117E-001   7.03655345E-001   5.02042917E-001
   3.00000000E+001   6.26616431E-001   7.60719619E-001   5.80189507E-001
   3.50000000E+001   6.80847335E-001   7.99963428E-001   6.40535859E-001
   4.00000000E+001   7.24890028E-001   8.26441078E-001   6.89380469E-001
   4.50000000E+001   7.60552141E-001   8.43626239E-001   7.29072921E-001
   5.00000000E+001   7.90817249E-001   8.53973631E-001   7.62718280E-001
   5.50000000E+001   8.16678838E-001   8.59260546E-001   7.91464926E-001
   6.00000000E+001   8.38314988E-001   8.60787416E-001   8.15679320E-001
   6.50000000E+001   8.57749569E-001   8.59527038E-001   8.37307615E-001
   7.00000000E+001   8.73924319E-001   8.56228836E-001   8.55527758E-001
   7.50000000E+001   8.87095203E-001   8.51478290E-001   8.70653294E-001
   8.00000000E+001   8.98605145E-001   8.45742410E-001   8.83928611E-001
   8.50000000E+001   9.09037477E-001   8.39397046E-001   8.95926690E-001
   9.00000000E+001   9.17830153E-001   8.32746415E-001   9.06183068E-001
   9.50000000E+001   9.25915826E-001   8.26032821E-001   9.15566581E-001
   1.00000000E+002   9.32520725E-001   8.19447624E-001   9.23392937E-001
   1.05000000E+002   9.38449905E-001   8.13136400E-001   9.30416744E-001
   1.10000000E+002   9.43819214E-001   8.07203452E-001   9.36761850E-001
   1.15000000E+002   9.48627295E-001   8.01717649E-001   9.42442779E-001
   1.20000000E+002   9.52793272E-001   7.96716330E-001   9.47391165E-001
   1.25000000E+002   9.56372186E-001   7.92211137E-001   9.51667329E-001
   1.30000000E+002   9.60053258E-001   7.88193681E-001   9.55942935E-001
   1.35000000E+002   9.63300872E-001   7.84641022E-001   9.59715852E-001
   1.40000000E+002   9.65984083E-001   7.81520608E-001   9.62864552E-001
   1.45000000E+002   9.68612771E-001   7.78794433E-001   9.65893331E-001
   1.50000000E+002   9.70823120E-001   7.76422332E-001   9.68454154E-001
   1.55000000E+002   9.73275918E-001   7.74364335E-001   9.71201993E-001
   1.60000000E+002   9.74886615E-001   7.72582286E-001   9.73079465E-001
   1.65000000E+002   9.76677698E-001   7.71040888E-001   9.75095505E-001
   1.70000000E+002   9.78259714E-001   7.69708184E-001   9.76872986E-001
   1.75000000E+002   9.79825682E-001   7.68555717E-001   9.78606495E-001
   1.80000000E+002   9.81275967E-001   7.67558467E-001   9.80201996E-001
   1.85000000E+002   9.82585947E-001   7.66694641E-001   9.81638090E-001
   1.90000000E+002   9.83481987E-001   7.65945391E-001   9.82646032E-001
   1.95000000E+002   9.84694073E-001   7.65294501E-001   9.83952600E-001
   2.00000000E+002   9.85730611E-001   7.64728067E-001   9.85072030E-001
   2.05000000E+002   9.86618951E-001   7.64234203E-001   9.86033119E-001
   2.10000000E+002   9.87428246E-001   7.63802755E-001   9.86906031E-001
   2.15000000E+002   9.88335713E-001   7.63425064E-001   9.87868512E-001
   2.20000000E+002   9.88994300E-001   7.63093739E-001   9.88576191E-001
   2.25000000E+002   9.89698514E-001   7.62802474E-001   9.89323232E-001
   2.30000000E+002   9.90362146E-001   7.62545883E-001   9.90024614E-001
   2.35000000E+002   9.90987531E-001   7.62319360E-001   9.90683369E-001
   2.40000000E+002   9.91419679E-001   7.62118962E-001   9.91145412E-001
   2.45000000E+002   9.91996277E-001   7.61941311E-001   9.91748108E-001
