# ./jetvheto -in n3lo-fixed-order/H125-LHC13-R04-mb-0-mt-1725-xmur100-xmuf100-log.fxd -xQ 0.333 -out benchmarks-n3lo-smallR/H125-LHC13-R04-mb-0-mt-1725-xmur100-xmuf100-xQ033-NNLO+NNLLb.R0-1.0.res -scheme b -order 2 -ptmax 500.01 -small-r -fixed_order 2 -loop-mass t -R0 1.0
# process = H    
# collider = pp   
# rts =  13000.000
# M   =    125.000
# muR =    125.000
# muF =    125.000
# Q   =     41.625
# p   =      5.000
# include_c1_squared =   F
# loop_mass  = t   
# alphas(MZ) =    0.11800
# alphas(M) =    0.11264
# alphas(muR) =    0.11264
# Rjet =      0.400
# order = NNLL
# pdf name and set = PDF4LHC15_nnlo_mc.LHgrid,    0
# matching scheme = b
# total cross sections [nb] at LO, NLOdiff, NNLOdiff, N3LOdiff =     0.013801    0.017514    0.010146    0.003834
#----------------------------------------------------------------------
# the lines that follow give the jet-veto efficiencies as a function of pt
#         pt            matched eff      resummed eff     fixed-order eff
   2.00000000E+001   4.18365016E-001   5.27685543E-001   3.54033455E-001
   2.50000000E+001   5.00551928E-001   6.07807708E-001   4.61286580E-001
   3.00000000E+001   5.67560698E-001   6.61874995E-001   5.43462220E-001
   3.50000000E+001   6.23262677E-001   6.96834694E-001   6.08508831E-001
   4.00000000E+001   6.70216640E-001   7.18496416E-001   6.61203589E-001
   4.50000000E+001   7.09943550E-001   7.31525879E-001   7.04404447E-001
   5.00000000E+001   7.43948564E-001   7.39285346E-001   7.40494892E-001
   5.50000000E+001   7.73089309E-001   7.43942382E-001   7.70889733E-001
   6.00000000E+001   7.98308827E-001   7.46791248E-001   7.96874542E-001
   6.50000000E+001   8.20165775E-001   7.48577237E-001   8.19206785E-001
   7.00000000E+001   8.39066372E-001   7.49726436E-001   8.38409214E-001
   7.50000000E+001   8.55691127E-001   7.50484984E-001   8.55230292E-001
   8.00000000E+001   8.70292472E-001   7.50997827E-001   8.69962422E-001
   8.50000000E+001   8.83064772E-001   7.51352304E-001   8.82823656E-001
   9.00000000E+001   8.94388413E-001   7.51602321E-001   8.94209219E-001
   9.50000000E+001   9.04365368E-001   7.51781934E-001   9.04230001E-001
   1.00000000E+002   9.13271693E-001   7.51913146E-001   9.13167919E-001
   1.05000000E+002   9.21215165E-001   7.52010473E-001   9.21134551E-001
   1.10000000E+002   9.28234852E-001   7.52083676E-001   9.28171457E-001
   1.15000000E+002   9.34604039E-001   7.52139439E-001   9.34553636E-001
   1.20000000E+002   9.40284705E-001   7.52182417E-001   9.40244216E-001
   1.25000000E+002   9.45422294E-001   7.52215898E-001   9.45389469E-001
   1.30000000E+002   9.50069390E-001   7.52242241E-001   9.50042546E-001
   1.35000000E+002   9.54250543E-001   7.52263157E-001   9.54228420E-001
   1.40000000E+002   9.58031540E-001   7.52279908E-001   9.58013167E-001
   1.45000000E+002   9.61507977E-001   7.52293428E-001   9.61492620E-001
   1.50000000E+002   9.64608500E-001   7.52304421E-001   9.64595577E-001
   1.55000000E+002   9.67475870E-001   7.52313422E-001   9.67464933E-001
   1.60000000E+002   9.70094222E-001   7.52320839E-001   9.70084916E-001
   1.65000000E+002   9.72463608E-001   7.52326987E-001   9.72455647E-001
   1.70000000E+002   9.74641203E-001   7.52332114E-001   9.74634361E-001
   1.75000000E+002   9.76598253E-001   7.52336411E-001   9.76592344E-001
   1.80000000E+002   9.78413703E-001   7.52340031E-001   9.78408580E-001
   1.85000000E+002   9.80060317E-001   7.52343095E-001   9.80055856E-001
   1.90000000E+002   9.81585722E-001   7.52345700E-001   9.81581823E-001
   1.95000000E+002   9.82996224E-001   7.52347924E-001   9.82992805E-001
   2.00000000E+002   9.84273995E-001   7.52349832E-001   9.84270986E-001
   2.05000000E+002   9.85467284E-001   7.52351473E-001   9.85464627E-001
   2.10000000E+002   9.86545687E-001   7.52352892E-001   9.86543334E-001
   2.15000000E+002   9.87529490E-001   7.52354121E-001   9.87527400E-001
   2.20000000E+002   9.88452765E-001   7.52355190E-001   9.88450903E-001
   2.25000000E+002   9.89297272E-001   7.52356123E-001   9.89295609E-001
   2.30000000E+002   9.90079314E-001   7.52356939E-001   9.90077825E-001
   2.35000000E+002   9.90812988E-001   7.52357656E-001   9.90811652E-001
   2.40000000E+002   9.91471094E-001   7.52358286E-001   9.91469891E-001
   2.45000000E+002   9.92090303E-001   7.52358843E-001   9.92089219E-001
