# python build-Q2-histos.py --mtQ1file ../../JetVHeto/benchmarks-n3lo-smallR/H125-LHC13-R04-mb-0-mt-1725-xmur050-xmuf050-xQ050-N3LO+NNLLb.R0-1.0.res --mtQ2file ../../JetVHeto/benchmarks-n3lo-smallR/H125-LHC13-R04-mb-0-mt-1725-xmur050-xmuf050-xQ025-N3LO+NNLLb.R0-1.0.res --mtmbQ2file ../../JetVHeto/benchmarks-n3lo-smallR/H125-LHC13-R04-mb-475-mt-1725-xmur050-xmuf050-xQ025-N3LO+NNLLb.R0-1.0.res
# process = H    
# collider = pp   
# rts =  13000.000
# M   =    125.000
# muR =     62.500
# muF =     62.500
# Q1  =  62.500; Q2  =  31.250
# p   =      5.000
# include_c1_squared =   F
# loop_mass  = t+b 
# alphas(MZ) =    0.11800
# alphas(M) =    0.11264
# alphas(muR) =    0.12516
# Rjet =      0.400
# order = NNLL
# pdf name and set = PDF4LHC15_nnlo_mc.LHgrid,    0
# matching scheme = b
# total cross sections [nb] at LO, NLOdiff, NNLOdiff, N3LOdiff =     0.014147    0.020254    0.008998    0.001413
#----------------------------------------------------------------------
# the lines that follow give the jet-veto efficiencies as a function of pt
#         pt            matched eff      resummed eff     fixed-order eff
20.0 0.441914331855 0.479481178787 0.422880362
25.0 0.527436888263 0.554553280901 0.510871357
30.0 0.599984132768 0.608290298249 0.586554172
35.0 0.658058662644 0.646350247988 0.646974526
40.0 0.703273977526 0.67274050431 0.694053894
45.0 0.742987751658 0.69048540177 0.735572065
50.0 0.774901066493 0.701997577213 0.768984657
55.0 0.802703102793 0.709201326833 0.7980723
60.0 0.825652694073 0.71357043587 0.822057983
65.0 0.846924919549 0.716160922703 0.844160448
70.0 0.863525876739 0.717680234506 0.861397413
75.0 0.878427197387 0.718572577991 0.876789719
80.0 0.891956341974 0.71910309053 0.890691953
85.0 0.904032161121 0.719424839366 0.903050366
90.0 0.914664165393 0.719625058696 0.913896477
95.0 0.923244359373 0.719753250086 0.922639584
100.0 0.931404263285 0.719837743358 0.930924075
105.0 0.938003180648 0.719895032177 0.937618957
110.0 0.944030755389 0.719934925354 0.943720915
115.0 0.949753781094 0.719963389094 0.94950209
120.0 0.954884800505 0.719984157069 0.954678868
125.0 0.959173491715 0.719999608623 0.959003817
130.0 0.962904790758 0.720011311153 0.962764111
135.0 0.966607826367 0.720020312552 0.966490458
140.0 0.969979187278 0.720027333594 0.969880698
145.0 0.972890457558 0.720032877626 0.97280736
150.0 0.975173397675 0.720037304303 0.975102905
155.0 0.977768851534 0.720040873727 0.977708768
160.0 0.980090241969 0.720043776725 0.98003879
165.0 0.98153486892 0.720046158803 0.981490611
170.0 0.983362546754 0.720048126735 0.983324317
175.0 0.985082449797 0.720049763162 0.985049293
180.0 0.986396427382 0.720051132493 0.986367565
185.0 0.987609174895 0.720052286049 0.98758396
190.0 0.988841973682 0.720053262011 0.988819869
195.0 0.989977673773 0.720054093608 0.989958231
200.0 0.990978561973 0.720054801795 0.990961409
205.0 0.991777903727 0.720055409753 0.991762726
210.0 0.992574347935 0.720055934529 0.992560879
215.0 0.993200153909 0.720056387122 0.993188169
220.0 0.994083127143 0.72005678167 0.994072436
225.0 0.994543619359 0.720057124081 0.994534058
230.0 0.99510326969 0.720057424446 0.995094697
235.0 0.995520230178 0.72005768672 0.995512527
240.0 0.995967572092 0.720057917993 0.995960635
245.0 0.996480816886 0.720058121176 0.996474558
