# ./jetvheto -in n3lo-fixed-order/H125-LHC13-R04-heft-xmur100-xmuf050-log.fxd -xQ 0.50 -out benchmarks-n3lo-smallR/H125-LHC13-R04-heft-xmur100-xmuf050-xQ050-NNLO+NNLLb.R0-0.5.res -scheme b -order 2 -ptmax 500.01 -fixed_order 2 -small-r -R0 0.5
# process = H    
# collider = pp   
# rts =  13000.000
# M   =    125.000
# muR =    125.000
# muF =     62.500
# Q   =     62.500
# p   =      5.000
# include_c1_squared =   F
# loop_mass  = none
# alphas(MZ) =    0.11800
# alphas(M) =    0.11264
# alphas(muR) =    0.11264
# Rjet =      0.400
# order = NNLL
# pdf name and set = PDF4LHC15_nnlo_mc.LHgrid,    0
# matching scheme = b
# total cross sections [nb] at LO, NLOdiff, NNLOdiff, N3LOdiff =     0.012193    0.016617    0.010424    0.004163
#----------------------------------------------------------------------
# the lines that follow give the jet-veto efficiencies as a function of pt
#         pt            matched eff      resummed eff     fixed-order eff
   2.00000000E+001   4.01870990E-001   4.97770489E-001   3.19093395E-001
   2.50000000E+001   4.85710446E-001   5.82185818E-001   4.28818478E-001
   3.00000000E+001   5.54253462E-001   6.42834593E-001   5.13525315E-001
   3.50000000E+001   6.10537831E-001   6.85874741E-001   5.80559508E-001
   4.00000000E+001   6.57478062E-001   7.15906249E-001   6.35048177E-001
   4.50000000E+001   6.97003799E-001   7.36377242E-001   6.80091071E-001
   5.00000000E+001   7.30621819E-001   7.49954882E-001   7.17845638E-001
   5.50000000E+001   7.59480663E-001   7.58720272E-001   7.49835413E-001
   6.00000000E+001   7.84354725E-001   7.64258007E-001   7.77080249E-001
   6.50000000E+001   8.06096371E-001   7.67712498E-001   8.00608709E-001
   7.00000000E+001   8.25233328E-001   7.69864443E-001   8.21084652E-001
   7.50000000E+001   8.41979223E-001   7.71217547E-001   8.38828705E-001
   8.00000000E+001   8.56834713E-001   7.72083408E-001   8.54427518E-001
   8.50000000E+001   8.70049881E-001   7.72650006E-001   8.68196864E-001
   9.00000000E+001   8.81828955E-001   7.73030093E-001   8.80390693E-001
   9.50000000E+001   8.92273199E-001   7.73291476E-001   8.91147017E-001
   1.00000000E+002   9.01620972E-001   7.73475503E-001   9.00731463E-001
   1.05000000E+002   9.09959321E-001   7.73607895E-001   9.09250586E-001
   1.10000000E+002   9.17480668E-001   7.73705016E-001   9.16911227E-001
   1.15000000E+002   9.24219086E-001   7.73777514E-001   9.23757875E-001
   1.20000000E+002   9.30320646E-001   7.73832481E-001   9.29944215E-001
   1.25000000E+002   9.35835363E-001   7.73874738E-001   9.35525900E-001
   1.30000000E+002   9.40801828E-001   7.73907631E-001   9.40545655E-001
   1.35000000E+002   9.45326984E-001   7.73933522E-001   9.45113556E-001
   1.40000000E+002   9.49443280E-001   7.73954110E-001   9.49264374E-001
   1.45000000E+002   9.53150339E-001   7.73970631E-001   9.52999510E-001
   1.50000000E+002   9.56562091E-001   7.73984000E-001   9.56434242E-001
   1.55000000E+002   9.59651218E-001   7.73994904E-001   9.59542295E-001
   1.60000000E+002   9.62503869E-001   7.74003859E-001   9.62410618E-001
   1.65000000E+002   9.65087300E-001   7.74011263E-001   9.65007101E-001
   1.70000000E+002   9.67480921E-001   7.74017422E-001   9.67411651E-001
   1.75000000E+002   9.69690034E-001   7.74022574E-001   9.69629960E-001
   1.80000000E+002   9.71701403E-001   7.74026908E-001   9.71649100E-001
   1.85000000E+002   9.73559761E-001   7.74030571E-001   9.73514058E-001
   1.90000000E+002   9.75275870E-001   7.74033683E-001   9.75235795E-001
   1.95000000E+002   9.76848093E-001   7.74036337E-001   9.76812836E-001
   2.00000000E+002   9.78303921E-001   7.74038610E-001   9.78272804E-001
   2.05000000E+002   9.79664470E-001   7.74040565E-001   9.79636925E-001
   2.10000000E+002   9.80911507E-001   7.74042253E-001   9.80887054E-001
   2.15000000E+002   9.82078332E-001   7.74043716E-001   9.82056564E-001
   2.20000000E+002   9.83161844E-001   7.74044987E-001   9.83142416E-001
   2.25000000E+002   9.84146148E-001   7.74046096E-001   9.84128765E-001
   2.30000000E+002   9.85104011E-001   7.74047066E-001   9.85088420E-001
   2.35000000E+002   9.85961211E-001   7.74047917E-001   9.85947195E-001
   2.40000000E+002   9.86774206E-001   7.74048666E-001   9.86761579E-001
   2.45000000E+002   9.87531070E-001   7.74049327E-001   9.87519670E-001
