# ./jetvheto -in n3lo-fixed-order/H125-LHC13-R04-heft-xmur100-xmuf200-log.fxd -xQ 0.50 -out benchmarks-n3lo-smallR/H125-LHC13-R04-heft-xmur100-xmuf200-xQ050-NNLO+NNLLa.R0-1.5.res -scheme a -order 2 -ptmax 500.01 -fixed_order 2 -small-r -R0 1.5
# process = H    
# collider = pp   
# rts =  13000.000
# M   =    125.000
# muR =    125.000
# muF =    250.000
# Q   =     62.500
# p   =      5.000
# include_c1_squared =   F
# loop_mass  = none
# alphas(MZ) =    0.11800
# alphas(M) =    0.11264
# alphas(muR) =    0.11264
# Rjet =      0.400
# order = NNLL
# pdf name and set = PDF4LHC15_nnlo_mc.LHgrid,    0
# matching scheme = a
# total cross sections [nb] at LO, NLOdiff, NNLOdiff, N3LOdiff =     0.013467    0.016878    0.009991    0.003297
#----------------------------------------------------------------------
# the lines that follow give the jet-veto efficiencies as a function of pt
#         pt            matched eff      resummed eff     fixed-order eff
   2.00000000E+001   5.03421478E-001   5.36114391E-001   5.05991398E-001
   2.50000000E+001   5.89573203E-001   6.15367589E-001   5.88044316E-001
   3.00000000E+001   6.56110206E-001   6.70841187E-001   6.50748479E-001
   3.50000000E+001   7.08097763E-001   7.09178318E-001   7.00208903E-001
   4.00000000E+001   7.49169075E-001   7.35136243E-001   7.40126597E-001
   4.50000000E+001   7.82224547E-001   7.52208887E-001   7.73138493E-001
   5.00000000E+001   8.08909315E-001   7.63040830E-001   8.00519176E-001
   5.50000000E+001   8.31002535E-001   7.69649974E-001   8.23706557E-001
   6.00000000E+001   8.49435275E-001   7.73535543E-001   8.43354845E-001
   6.50000000E+001   8.65124870E-001   7.75750912E-001   8.60204573E-001
   7.00000000E+001   8.78749314E-001   7.76987564E-001   8.74840597E-001
   7.50000000E+001   8.90581786E-001   7.77670339E-001   8.87507747E-001
   8.00000000E+001   9.01062158E-001   7.78046584E-001   8.98653585E-001
   8.50000000E+001   9.10256388E-001   7.78254969E-001   9.08368213E-001
   9.00000000E+001   9.18485177E-001   7.78371526E-001   9.16999757E-001
   9.50000000E+001   9.25771968E-001   7.78437523E-001   9.24597242E-001
   1.00000000E+002   9.32205955E-001   7.78475400E-001   9.31271109E-001
   1.05000000E+002   9.38049953E-001   7.78497450E-001   9.37300792E-001
   1.10000000E+002   9.43286970E-001   7.78510455E-001   9.42682337E-001
   1.15000000E+002   9.47970044E-001   7.78518213E-001   9.47478602E-001
   1.20000000E+002   9.52196877E-001   7.78522883E-001   9.51794658E-001
   1.25000000E+002   9.55983340E-001   7.78525712E-001   9.55651936E-001
   1.30000000E+002   9.59407596E-001   7.78527430E-001   9.59132780E-001
   1.35000000E+002   9.62556084E-001   7.78528471E-001   9.62326785E-001
   1.40000000E+002   9.65388165E-001   7.78529096E-001   9.65195726E-001
   1.45000000E+002   9.67954940E-001   7.78529464E-001   9.67792544E-001
   1.50000000E+002   9.70293481E-001   7.78529672E-001   9.70155718E-001
   1.55000000E+002   9.72421932E-001   7.78529782E-001   9.72304482E-001
   1.60000000E+002   9.74397052E-001   7.78529831E-001   9.74296447E-001
   1.65000000E+002   9.76189982E-001   7.78529843E-001   9.76103423E-001
   1.70000000E+002   9.77826276E-001   7.78529833E-001   9.77751486E-001
   1.75000000E+002   9.79304736E-001   7.78529810E-001   9.79239856E-001
   1.80000000E+002   9.80682170E-001   7.78529782E-001   9.80625671E-001
   1.85000000E+002   9.81961445E-001   7.78529750E-001   9.81912067E-001
   1.90000000E+002   9.83126836E-001   7.78529719E-001   9.83083532E-001
   1.95000000E+002   9.84205994E-001   7.78529688E-001   9.84167892E-001
   2.00000000E+002   9.85191796E-001   7.78529659E-001   9.85158166E-001
   2.05000000E+002   9.86111897E-001   7.78529631E-001   9.86082127E-001
   2.10000000E+002   9.86966321E-001   7.78529607E-001   9.86939891E-001
   2.15000000E+002   9.87760859E-001   7.78529584E-001   9.87737331E-001
   2.20000000E+002   9.88491833E-001   7.78529563E-001   9.88470834E-001
   2.25000000E+002   9.89168837E-001   7.78529544E-001   9.89150049E-001
   2.30000000E+002   9.89807502E-001   7.78529528E-001   9.89790652E-001
   2.35000000E+002   9.90403932E-001   7.78529512E-001   9.90388785E-001
   2.40000000E+002   9.90940349E-001   7.78529499E-001   9.90926703E-001
   2.45000000E+002   9.91456490E-001   7.78529487E-001   9.91444170E-001
