# ./jetvheto -in n3lo-fixed-order/H125-LHC13-R04-heft-xmur050-xmuf100-log.fxd -xQ 0.50 -out benchmarks-n3lo-smallR/H125-LHC13-R04-heft-xmur050-xmuf100-xQ050-N3LO+NNLLb.R0-0.5.res -scheme b -order 2 -ptmax 500.01 -fixed_order 3 -small-r -R0 0.5
# process = H    
# collider = pp   
# rts =  13000.000
# M   =    125.000
# muR =     62.500
# muF =    125.000
# Q   =     62.500
# p   =      5.000
# include_c1_squared =   F
# loop_mass  = none
# alphas(MZ) =    0.11800
# alphas(M) =    0.11264
# alphas(muR) =    0.12516
# Rjet =      0.400
# order = NNLL
# pdf name and set = PDF4LHC15_nnlo_mc.LHgrid,    0
# matching scheme = b
# total cross sections [nb] at LO, NLOdiff, NNLOdiff, N3LOdiff =     0.015984    0.019551    0.008553    0.000949
#----------------------------------------------------------------------
# the lines that follow give the jet-veto efficiencies as a function of pt
#         pt            matched eff      resummed eff     fixed-order eff
   2.00000000E+001   4.47821592E-001   5.06353220E-001   4.30143720E-001
   2.50000000E+001   5.32910564E-001   5.83718324E-001   5.18147973E-001
   3.00000000E+001   6.07022683E-001   6.37868242E-001   5.95579410E-001
   3.50000000E+001   6.63997784E-001   6.75283570E-001   6.54547090E-001
   4.00000000E+001   7.09962775E-001   7.00612805E-001   7.02161820E-001
   4.50000000E+001   7.46950962E-001   7.17277070E-001   7.40590338E-001
   5.00000000E+001   7.78501877E-001   7.27860971E-001   7.73417912E-001
   5.50000000E+001   8.05678118E-001   7.34329543E-001   8.01677467E-001
   6.00000000E+001   8.28388323E-001   7.38141922E-001   8.25267498E-001
   6.50000000E+001   8.49183573E-001   7.40323855E-001   8.46767154E-001
   7.00000000E+001   8.66529026E-001   7.41548457E-001   8.64663190E-001
   7.50000000E+001   8.80536475E-001   7.42229646E-001   8.79095795E-001
   8.00000000E+001   8.92900182E-001   7.42608833E-001   8.91784120E-001
   8.50000000E+001   9.04351939E-001   7.42821609E-001   9.03482987E-001
   9.00000000E+001   9.13932047E-001   7.42942634E-001   9.13251039E-001
   9.50000000E+001   9.22937380E-001   7.43012660E-001   9.22399687E-001
   1.00000000E+002   9.30173907E-001   7.43053965E-001   9.29746499E-001
   1.05000000E+002   9.36707929E-001   7.43078828E-001   9.36365528E-001
   1.10000000E+002   9.42684965E-001   7.43094107E-001   9.42408604E-001
   1.15000000E+002   9.48015752E-001   7.43103692E-001   9.47791016E-001
   1.20000000E+002   9.52589418E-001   7.43109829E-001   9.52405455E-001
   1.25000000E+002   9.56432586E-001   7.43113837E-001   9.56280992E-001
   1.30000000E+002   9.60547726E-001   7.43116505E-001   9.60421917E-001
   1.35000000E+002   9.64112688E-001   7.43118314E-001   9.64007650E-001
   1.40000000E+002   9.66964318E-001   7.43119564E-001   9.66876177E-001
   1.45000000E+002   9.69775511E-001   7.43120441E-001   9.69701096E-001
   1.50000000E+002   9.72076045E-001   7.43121068E-001   9.72012931E-001
   1.55000000E+002   9.74795960E-001   7.43121524E-001   9.74742124E-001
   1.60000000E+002   9.76302839E-001   7.43121859E-001   9.76256750E-001
   1.65000000E+002   9.78152589E-001   7.43122110E-001   9.78112939E-001
   1.70000000E+002   9.79727698E-001   7.43122300E-001   9.79693446E-001
   1.75000000E+002   9.81348561E-001   7.43122446E-001   9.81318852E-001
   1.80000000E+002   9.82830305E-001   7.43122559E-001   9.82804438E-001
   1.85000000E+002   9.84157163E-001   7.43122649E-001   9.84134562E-001
   1.90000000E+002   9.84894658E-001   7.43122720E-001   9.84874852E-001
   1.95000000E+002   9.86137693E-001   7.43122777E-001   9.86120267E-001
   2.00000000E+002   9.87161283E-001   7.43122823E-001   9.87145908E-001
   2.05000000E+002   9.87990883E-001   7.43122861E-001   9.87977278E-001
   2.10000000E+002   9.88739987E-001   7.43122892E-001   9.88727914E-001
   2.15000000E+002   9.89677833E-001   7.43122918E-001   9.89667088E-001
   2.20000000E+002   9.90256044E-001   7.43122940E-001   9.90246459E-001
   2.25000000E+002   9.90934056E-001   7.43122959E-001   9.90925484E-001
   2.30000000E+002   9.91573550E-001   7.43122974E-001   9.91565864E-001
   2.35000000E+002   9.92168268E-001   7.43122988E-001   9.92161361E-001
   2.40000000E+002   9.92502985E-001   7.43122999E-001   9.92496766E-001
   2.45000000E+002   9.93072775E-001   7.43123009E-001   9.93067162E-001
