# ./jetvheto -in n3lo-fixed-order/H125-LHC13-R04-mb-0-mt-1725-xmur100-xmuf100-log.fxd -xQ 0.5 -out benchmarks-n3lo-smallR/H125-LHC13-R04-mb-0-mt-1725-xmur100-xmuf100-xQ050-NNLO+NNLLa.R0-1.5.res -scheme a -order 2 -ptmax 500.01 -small-r -fixed_order 2 -loop-mass t -R0 1.5
# process = H    
# collider = pp   
# rts =  13000.000
# M   =    125.000
# muR =    125.000
# muF =    125.000
# Q   =     62.500
# p   =      5.000
# include_c1_squared =   F
# loop_mass  = t   
# alphas(MZ) =    0.11800
# alphas(M) =    0.11264
# alphas(muR) =    0.11264
# Rjet =      0.400
# order = NNLL
# pdf name and set = PDF4LHC15_nnlo_mc.LHgrid,    0
# matching scheme = a
# total cross sections [nb] at LO, NLOdiff, NNLOdiff, N3LOdiff =     0.013801    0.017514    0.010146    0.003834
#----------------------------------------------------------------------
# the lines that follow give the jet-veto efficiencies as a function of pt
#         pt            matched eff      resummed eff     fixed-order eff
   2.00000000E+001   5.00193078E-001   5.28985432E-001   5.12111256E-001
   2.50000000E+001   5.87462086E-001   6.10579186E-001   5.93117916E-001
   3.00000000E+001   6.54964244E-001   6.68294253E-001   6.55183932E-001
   3.50000000E+001   7.07872558E-001   7.08622580E-001   7.04312652E-001
   4.00000000E+001   7.49803177E-001   7.36271333E-001   7.44112204E-001
   4.50000000E+001   7.83252507E-001   7.54737356E-001   7.76741158E-001
   5.00000000E+001   8.10424883E-001   7.66686517E-001   8.03999724E-001
   5.50000000E+001   8.32763870E-001   7.74165481E-001   8.26956486E-001
   6.00000000E+001   8.51537315E-001   7.78710974E-001   8.46582419E-001
   6.50000000E+001   8.67520976E-001   7.81417508E-001   8.63449624E-001
   7.00000000E+001   8.81219834E-001   7.83014819E-001   8.77952928E-001
   7.50000000E+001   8.93244945E-001   7.83960566E-001   8.90657633E-001
   8.00000000E+001   9.03821525E-001   7.84528314E-001   9.01784587E-001
   8.50000000E+001   9.13100746E-001   7.84876509E-001   9.11498483E-001
   9.00000000E+001   9.21361218E-001   7.85095745E-001   9.20097826E-001
   9.50000000E+001   9.28667183E-001   7.85237782E-001   9.27666371E-001
   1.00000000E+002   9.35214606E-001   7.85332494E-001   9.34417045E-001
   1.05000000E+002   9.41073893E-001   7.85397421E-001   9.40434122E-001
   1.10000000E+002   9.46265684E-001   7.85443093E-001   9.45748990E-001
   1.15000000E+002   9.50989577E-001   7.85475982E-001   9.50569353E-001
   1.20000000E+002   9.55211458E-001   7.85500169E-001   9.54867362E-001
   1.25000000E+002   9.59037119E-001   7.85518294E-001   9.58753493E-001
   1.30000000E+002   9.62503173E-001   7.85532103E-001   9.62267892E-001
   1.35000000E+002   9.65625770E-001   7.85542781E-001   9.65429419E-001
   1.40000000E+002   9.68452808E-001   7.85551145E-001   9.68287981E-001
   1.45000000E+002   9.71055079E-001   7.85557776E-001   9.70915959E-001
   1.50000000E+002   9.73377613E-001   7.85563086E-001   9.73259576E-001
   1.55000000E+002   9.75527407E-001   7.85567379E-001   9.75426757E-001
   1.60000000E+002   9.77491814E-001   7.85570880E-001   9.77405590E-001
   1.65000000E+002   9.79270362E-001   7.85573757E-001   9.79196168E-001
   1.70000000E+002   9.80905829E-001   7.85576138E-001   9.80841717E-001
   1.75000000E+002   9.82376172E-001   7.85578121E-001   9.82320552E-001
   1.80000000E+002   9.83740765E-001   7.85579783E-001   9.83692327E-001
   1.85000000E+002   9.84978825E-001   7.85581184E-001   9.84936490E-001
   1.90000000E+002   9.86126158E-001   7.85582370E-001   9.86089030E-001
   1.95000000E+002   9.87187391E-001   7.85583379E-001   9.87154723E-001
   2.00000000E+002   9.88148947E-001   7.85584242E-001   9.88120114E-001
   2.05000000E+002   9.89047178E-001   7.85584984E-001   9.89021653E-001
   2.10000000E+002   9.89859044E-001   7.85585622E-001   9.89836384E-001
   2.15000000E+002   9.90599806E-001   7.85586175E-001   9.90579634E-001
   2.20000000E+002   9.91295145E-001   7.85586655E-001   9.91277142E-001
   2.25000000E+002   9.91931243E-001   7.85587073E-001   9.91915136E-001
   2.30000000E+002   9.92520377E-001   7.85587439E-001   9.92505931E-001
   2.35000000E+002   9.93073164E-001   7.85587759E-001   9.93060180E-001
   2.40000000E+002   9.93569036E-001   7.85588041E-001   9.93557338E-001
   2.45000000E+002   9.94035667E-001   7.85588290E-001   9.94025107E-001
