# ./jetvheto -in n3lo-fixed-order/H125-LHC13-R04-mb-475-mt-1725-xmur050-xmuf100-log.fxd -xQ 0.25 -out benchmarks-n3lo-smallR/H125-LHC13-R04-mb-475-mt-1725-xmur050-xmuf100-xQ025-N3LO+NNLLb.R0-1.5.res -scheme b -order 2 -ptmax 500.01 -fixed_order 3 -small-r -loop-mass t+b -R0 1.5
# process = H    
# collider = pp   
# rts =  13000.000
# M   =    125.000
# muR =     62.500
# muF =    125.000
# Q   =     31.250
# p   =      5.000
# include_c1_squared =   F
# loop_mass  = t+b 
# alphas(MZ) =    0.11800
# alphas(M) =    0.11264
# alphas(muR) =    0.12516
# Rjet =      0.400
# order = NNLL
# pdf name and set = PDF4LHC15_nnlo_mc.LHgrid,    0
# matching scheme = b
# total cross sections [nb] at LO, NLOdiff, NNLOdiff, N3LOdiff =     0.015023    0.020252    0.008553    0.000949
#----------------------------------------------------------------------
# the lines that follow give the jet-veto efficiencies as a function of pt
#         pt            matched eff      resummed eff     fixed-order eff
   2.00000000E+001   4.28885951E-001   4.82554684E-001   4.22022001E-001
   2.50000000E+001   5.14246212E-001   5.47236380E-001   5.10305136E-001
   3.00000000E+001   5.90082524E-001   5.85293228E-001   5.88327259E-001
   3.50000000E+001   6.49123682E-001   6.06009768E-001   6.48206817E-001
   4.00000000E+001   6.97081749E-001   6.16894081E-001   6.96568548E-001
   4.50000000E+001   7.36111027E-001   6.22646923E-001   7.35802106E-001
   5.00000000E+001   7.69574441E-001   6.25780761E-001   7.69386078E-001
   5.50000000E+001   7.98430557E-001   6.27556443E-001   7.98313706E-001
   6.00000000E+001   8.22624602E-001   6.28603981E-001   8.22547640E-001
   6.50000000E+001   8.44669592E-001   6.29245798E-001   8.44619571E-001
   7.00000000E+001   8.63093065E-001   6.29652735E-001   8.63058779E-001
   7.50000000E+001   8.77946188E-001   6.29918760E-001   8.77921035E-001
   8.00000000E+001   8.91072194E-001   6.30097454E-001   8.91053486E-001
   8.50000000E+001   9.03140300E-001   6.30220422E-001   9.03126493E-001
   9.00000000E+001   9.13255866E-001   6.30306885E-001   9.13245267E-001
   9.50000000E+001   9.22710085E-001   6.30368863E-001   9.22702012E-001
   1.00000000E+002   9.30325275E-001   6.30414068E-001   9.30318877E-001
   1.05000000E+002   9.37208018E-001   6.30447559E-001   9.37202914E-001
   1.10000000E+002   9.43444562E-001   6.30472727E-001   9.43440479E-001
   1.15000000E+002   9.49019375E-001   6.30491887E-001   9.49016071E-001
   1.20000000E+002   9.53757349E-001   6.30506646E-001   9.53754638E-001
   1.25000000E+002   9.57797511E-001   6.30518139E-001   9.57795252E-001
   1.30000000E+002   9.62079516E-001   6.30527179E-001   9.62077662E-001
   1.35000000E+002   9.65784027E-001   6.30534355E-001   9.65782485E-001
   1.40000000E+002   9.68764250E-001   6.30540100E-001   9.68762947E-001
   1.45000000E+002   9.71688740E-001   6.30544737E-001   9.71687638E-001
   1.50000000E+002   9.74089978E-001   6.30548507E-001   9.74089037E-001
   1.55000000E+002   9.76919576E-001   6.30551593E-001   9.76918783E-001
   1.60000000E+002   9.78486004E-001   6.30554136E-001   9.78485312E-001
   1.65000000E+002   9.80405908E-001   6.30556244E-001   9.80405311E-001
   1.70000000E+002   9.82027205E-001   6.30558002E-001   9.82026686E-001
   1.75000000E+002   9.83689720E-001   6.30559475E-001   9.83689270E-001
   1.80000000E+002   9.85195257E-001   6.30560716E-001   9.85194866E-001
   1.85000000E+002   9.86548690E-001   6.30561766E-001   9.86548347E-001
   1.90000000E+002   9.87302341E-001   6.30562659E-001   9.87302036E-001
   1.95000000E+002   9.88556535E-001   6.30563421E-001   9.88556267E-001
   2.00000000E+002   9.89579987E-001   6.30564075E-001   9.89579750E-001
   2.05000000E+002   9.90408170E-001   6.30564638E-001   9.90407959E-001
   2.10000000E+002   9.91151624E-001   6.30565124E-001   9.91151437E-001
   2.15000000E+002   9.92075370E-001   6.30565545E-001   9.92075203E-001
   2.20000000E+002   9.92639450E-001   6.30565911E-001   9.92639301E-001
   2.25000000E+002   9.93299293E-001   6.30566231E-001   9.93299159E-001
   2.30000000E+002   9.93914667E-001   6.30566511E-001   9.93914547E-001
   2.35000000E+002   9.94476688E-001   6.30566756E-001   9.94476580E-001
   2.40000000E+002   9.94777132E-001   6.30566973E-001   9.94777034E-001
   2.45000000E+002   9.95317461E-001   6.30567163E-001   9.95317372E-001
