# ./jetvheto -in n3lo-fixed-order/H125-LHC13-R04-mb-0-mt-1725-xmur050-xmuf050-log.fxd -xQ 0.75 -out benchmarks-n3lo-smallR/H125-LHC13-R04-mb-0-mt-1725-xmur050-xmuf050-xQ075-N3LO+NNLLb.res -scheme b -order 2 -ptmax 500.01 -fixed_order 3 -loop-mass t
# process = H    
# collider = pp   
# rts =  13000.000
# M   =    125.000
# muR =     62.500
# muF =     62.500
# Q   =     93.750
# p   =      5.000
# include_c1_squared =   F
# loop_mass  = t   
# alphas(MZ) =    0.11800
# alphas(M) =    0.11264
# alphas(muR) =    0.12516
# Rjet =      0.400
# order = NNLL
# pdf name and set = PDF4LHC15_nnlo_mc.LHgrid,    0
# matching scheme = b
# total cross sections [nb] at LO, NLOdiff, NNLOdiff, N3LOdiff =     0.015885    0.020561    0.008998    0.001413
#----------------------------------------------------------------------
# the lines that follow give the jet-veto efficiencies as a function of pt
#         pt            matched eff      resummed eff     fixed-order eff
   2.00000000E+001   4.68897275E-001   5.39455074E-001   4.41643521E-001
   2.50000000E+001   5.54921169E-001   6.21596679E-001   5.29528045E-001
   3.00000000E+001   6.26800658E-001   6.79226902E-001   6.04131024E-001
   3.50000000E+001   6.83806085E-001   7.19345410E-001   6.63337130E-001
   4.00000000E+001   7.27758438E-001   7.46824004E-001   7.09302441E-001
   4.50000000E+001   7.65810203E-001   7.65095547E-001   7.49371437E-001
   5.00000000E+001   7.96223793E-001   7.76620346E-001   7.81702411E-001
   5.50000000E+001   8.22196747E-001   7.83212769E-001   8.09465789E-001
   6.00000000E+001   8.43425685E-001   7.86231003E-001   8.32379427E-001
   6.50000000E+001   8.63066210E-001   7.86723587E-001   8.53504482E-001
   7.00000000E+001   8.78004234E-001   7.85511576E-001   8.69854849E-001
   7.50000000E+001   8.91347556E-001   7.83236201E-001   8.84440584E-001
   8.00000000E+001   9.03413821E-001   7.80389537E-001   8.97583035E-001
   8.50000000E+001   9.14133626E-001   7.77333376E-001   9.09233323E-001
   9.00000000E+001   9.23606251E-001   7.74317526E-001   9.19502663E-001
   9.50000000E+001   9.31137709E-001   7.71497936E-001   9.27728280E-001
   1.00000000E+002   9.38401554E-001   7.68959284E-001   9.35563225E-001
   1.05000000E+002   9.44140431E-001   7.66734344E-001   9.41788367E-001
   1.10000000E+002   9.49456728E-001   7.64821667E-001   9.47503067E-001
   1.15000000E+002   9.54531796E-001   7.63199678E-001   9.52903001E-001
   1.20000000E+002   9.59127820E-001   7.61836892E-001   9.57766396E-001
   1.25000000E+002   9.62960371E-001   7.60698579E-001   9.61821780E-001
   1.30000000E+002   9.66275752E-001   7.59750979E-001   9.65320871E-001
   1.35000000E+002   9.69595646E-001   7.58963281E-001   9.68789919E-001
   1.40000000E+002   9.72633782E-001   7.58308467E-001   9.71951352E-001
   1.45000000E+002   9.75282590E-001   7.57763499E-001   9.74702884E-001
   1.50000000E+002   9.77347664E-001   7.57309071E-001   9.76854447E-001
   1.55000000E+002   9.79712418E-001   7.56929190E-001   9.79289601E-001
   1.60000000E+002   9.81834424E-001   7.56610704E-001   9.81470679E-001
   1.65000000E+002   9.83129637E-001   7.56342844E-001   9.82816919E-001
   1.70000000E+002   9.84818296E-001   7.56116809E-001   9.84547446E-001
   1.75000000E+002   9.86377997E-001   7.55925415E-001   9.86142527E-001
   1.80000000E+002   9.87570708E-001   7.55762789E-001   9.87365627E-001
   1.85000000E+002   9.88668786E-001   7.55624130E-001   9.88489569E-001
   1.90000000E+002   9.89797071E-001   7.55505500E-001   9.89639801E-001
   1.95000000E+002   9.90840163E-001   7.55403662E-001   9.90701722E-001
   2.00000000E+002   9.91762731E-001   7.55315953E-001   9.91640532E-001
   2.05000000E+002   9.92489360E-001   7.55240167E-001   9.92381271E-001
   2.10000000E+002   9.93220280E-001   7.55174479E-001   9.93124356E-001
   2.15000000E+002   9.93787454E-001   7.55117371E-001   9.93702166E-001
   2.20000000E+002   9.94600155E-001   7.55067576E-001   9.94523970E-001
   2.25000000E+002   9.95019277E-001   7.55024033E-001   9.94951215E-001
   2.30000000E+002   9.95537727E-001   7.54985852E-001   9.95476723E-001
   2.35000000E+002   9.95914292E-001   7.54952284E-001   9.95859519E-001
   2.40000000E+002   9.96326061E-001   7.54922696E-001   9.96276754E-001
   2.45000000E+002   9.96808994E-001   7.54896550E-001   9.96764480E-001
