# ./jetvheto -in n3lo-fixed-order/H125-LHC13-R04-mb-0-mt-1725-xmur025-xmuf025-log.fxd -xQ 0.25 -out benchmarks-n3lo-smallR/H125-LHC13-R04-mb-0-mt-1725-xmur025-xmuf025-xQ025-NNLO+NNLLb.R0-1.0.res -scheme b -order 2 -ptmax 500.01 -small-r -fixed_order 2 -loop-mass t -R0 1.0
# process = H    
# collider = pp   
# rts =  13000.000
# M   =    125.000
# muR =     31.250
# muF =     31.250
# Q   =     31.250
# p   =      5.000
# include_c1_squared =   F
# loop_mass  = t   
# alphas(MZ) =    0.11800
# alphas(M) =    0.11264
# alphas(muR) =    0.14091
# Rjet =      0.400
# order = NNLL
# pdf name and set = PDF4LHC15_nnlo_mc.LHgrid,    0
# matching scheme = b
# total cross sections [nb] at LO, NLOdiff, NNLOdiff, N3LOdiff =     0.018140    0.025356    0.006043   -0.002471
#----------------------------------------------------------------------
# the lines that follow give the jet-veto efficiencies as a function of pt
#         pt            matched eff      resummed eff     fixed-order eff
   2.00000000E+001   3.94756634E-001   4.45267489E-001   3.51600386E-001
   2.50000000E+001   4.78349194E-001   5.08371496E-001   4.53985492E-001
   3.00000000E+001   5.48638248E-001   5.45833071E-001   5.35336815E-001
   3.50000000E+001   6.08669411E-001   5.66355192E-001   6.01450914E-001
   4.00000000E+001   6.59709015E-001   5.77180148E-001   6.55707630E-001
   4.50000000E+001   7.03105327E-001   5.82915065E-001   7.00809251E-001
   5.00000000E+001   7.40125540E-001   5.86043360E-001   7.38750758E-001
   5.50000000E+001   7.71715964E-001   5.87817279E-001   7.70859819E-001
   6.00000000E+001   7.98907808E-001   5.88864257E-001   7.98354652E-001
   6.50000000E+001   8.22414472E-001   5.89505908E-001   8.22044881E-001
   7.00000000E+001   8.42851897E-001   5.89912812E-001   8.42597642E-001
   7.50000000E+001   8.60428142E-001   5.90178844E-001   8.60248412E-001
   8.00000000E+001   8.76010665E-001   5.90357557E-001   8.75880788E-001
   8.50000000E+001   8.89595385E-001   5.90480544E-001   8.89499593E-001
   9.00000000E+001   9.01600000E-001   5.90567023E-001   9.01528041E-001
   9.50000000E+001   9.12067682E-001   5.90629015E-001   9.12012715E-001
   1.00000000E+002   9.21420436E-001   5.90674230E-001   9.21377846E-001
   1.05000000E+002   9.29757582E-001   5.90707730E-001   9.29724151E-001
   1.10000000E+002   9.37123448E-001   5.90732904E-001   9.37096897E-001
   1.15000000E+002   9.43769234E-001   5.90752069E-001   9.43747922E-001
   1.20000000E+002   9.49685757E-001   5.90766832E-001   9.49668478E-001
   1.25000000E+002   9.54881937E-001   5.90778328E-001   9.54867796E-001
   1.30000000E+002   9.59614784E-001   5.90787370E-001   9.59603121E-001
   1.35000000E+002   9.63861544E-001   5.90794549E-001   9.63851855E-001
   1.40000000E+002   9.67679625E-001   5.90800296E-001   9.67671517E-001
   1.45000000E+002   9.71169341E-001   5.90804934E-001   9.71162513E-001
   1.50000000E+002   9.74261858E-001   5.90808705E-001   9.74256073E-001
   1.55000000E+002   9.77057376E-001   5.90811792E-001   9.77052447E-001
   1.60000000E+002   9.79611759E-001   5.90814336E-001   9.79607538E-001
   1.65000000E+002   9.81927322E-001   5.90816444E-001   9.81923690E-001
   1.70000000E+002   9.83980724E-001   5.90818202E-001   9.83977585E-001
   1.75000000E+002   9.85858580E-001   5.90819676E-001   9.85855855E-001
   1.80000000E+002   9.87560525E-001   5.90820917E-001   9.87558150E-001
   1.85000000E+002   9.89079676E-001   5.90821967E-001   9.89077597E-001
   1.90000000E+002   9.90488957E-001   5.90822861E-001   9.90487132E-001
   1.95000000E+002   9.91781943E-001   5.90823623E-001   9.91780336E-001
   2.00000000E+002   9.92924457E-001   5.90824277E-001   9.92923037E-001
   2.05000000E+002   9.93989576E-001   5.90824840E-001   9.93988317E-001
   2.10000000E+002   9.94967906E-001   5.90825326E-001   9.94966787E-001
   2.15000000E+002   9.95796728E-001   5.90825748E-001   9.95795730E-001
   2.20000000E+002   9.96586438E-001   5.90826114E-001   9.96585546E-001
   2.25000000E+002   9.97314159E-001   5.90826434E-001   9.97313360E-001
   2.30000000E+002   9.97944481E-001   5.90826714E-001   9.97943763E-001
   2.35000000E+002   9.98517880E-001   5.90826959E-001   9.98517235E-001
   2.40000000E+002   9.99026902E-001   5.90827176E-001   9.99026319E-001
   2.45000000E+002   9.99503477E-001   5.90827366E-001   9.99502951E-001
