# ./jetvheto -in n3lo-fixed-order/H125-LHC13-R04-mb-475-mt-1725-xmur050-xmuf050-log.fxd -xQ 0.5 -out benchmarks-n3lo-smallR/H125-LHC13-R04-mb-475-mt-1725-xmur050-xmuf050-xQ050-N3LO+NNLLb.R0-1.0.res -scheme b -order 2 -ptmax 500.01 -fixed_order 3 -small-r -loop-mass t+b -R0 1.0
# process = H    
# collider = pp   
# rts =  13000.000
# M   =    125.000
# muR =     62.500
# muF =     62.500
# Q   =     62.500
# p   =      5.000
# include_c1_squared =   F
# loop_mass  = t+b 
# alphas(MZ) =    0.11800
# alphas(M) =    0.11264
# alphas(muR) =    0.12516
# Rjet =      0.400
# order = NNLL
# pdf name and set = PDF4LHC15_nnlo_mc.LHgrid,    0
# matching scheme = b
# total cross sections [nb] at LO, NLOdiff, NNLOdiff, N3LOdiff =     0.014147    0.020254    0.008998    0.001413
#----------------------------------------------------------------------
# the lines that follow give the jet-veto efficiencies as a function of pt
#         pt            matched eff      resummed eff     fixed-order eff
   2.00000000E+001   4.40669150E-001   4.78233462E-001   4.22880362E-001
   2.50000000E+001   5.26377677E-001   5.52462194E-001   5.10871357E-001
   3.00000000E+001   5.99169834E-001   6.04859250E-001   5.86554172E-001
   3.50000000E+001   6.57476567E-001   6.41399045E-001   6.46974526E-001
   4.00000000E+001   7.02878399E-001   6.66412156E-001   6.94053894E-001
   4.50000000E+001   7.42729496E-001   6.83084270E-001   7.35572065E-001
   5.00000000E+001   7.74734398E-001   6.93843764E-001   7.68984657E-001
   5.50000000E+001   8.02596801E-001   7.00558547E-001   7.98072300E-001
   6.00000000E+001   8.25583884E-001   7.04627857E-001   8.22057983E-001
   6.50000000E+001   8.46879339E-001   7.07042173E-001   8.44160448E-001
   7.00000000E+001   8.63494909E-001   7.08460765E-001   8.61397413E-001
   7.50000000E+001   8.78405519E-001   7.09296304E-001   8.76789719E-001
   8.00000000E+001   8.91940730E-001   7.09794849E-001   8.90691953E-001
   8.50000000E+001   9.04020635E-001   7.10098493E-001   9.03050366E-001
   9.00000000E+001   9.14655464E-001   7.10288324E-001   9.13896477E-001
   9.50000000E+001   9.23237667E-001   7.10410449E-001   9.22639584E-001
   1.00000000E+002   9.31399032E-001   7.10491328E-001   9.30924075E-001
   1.05000000E+002   9.37999036E-001   7.10546419E-001   9.37618957E-001
   1.10000000E+002   9.44027434E-001   7.10584943E-001   9.43720915E-001
   1.15000000E+002   9.49751091E-001   7.10612539E-001   9.49502090E-001
   1.20000000E+002   9.54882600E-001   7.10632740E-001   9.54678868E-001
   1.25000000E+002   9.59171678E-001   7.10647817E-001   9.59003817E-001
   1.30000000E+002   9.62903283E-001   7.10659264E-001   9.62764111E-001
   1.35000000E+002   9.66606566E-001   7.10668090E-001   9.66490458E-001
   1.40000000E+002   9.69978127E-001   7.10674986E-001   9.69880698E-001
   1.45000000E+002   9.72889560E-001   7.10680441E-001   9.72807360E-001
   1.50000000E+002   9.75172633E-001   7.10684802E-001   9.75102905E-001
   1.55000000E+002   9.77768197E-001   7.10688323E-001   9.77708768E-001
   1.60000000E+002   9.80089681E-001   7.10691190E-001   9.80038790E-001
   1.65000000E+002   9.81534384E-001   7.10693543E-001   9.81490611E-001
   1.70000000E+002   9.83362126E-001   7.10695489E-001   9.83324317E-001
   1.75000000E+002   9.85082084E-001   7.10697109E-001   9.85049293E-001
   1.80000000E+002   9.86396108E-001   7.10698465E-001   9.86367565E-001
   1.85000000E+002   9.87608895E-001   7.10699608E-001   9.87583960E-001
   1.90000000E+002   9.88841729E-001   7.10700575E-001   9.88819869E-001
   1.95000000E+002   9.89977456E-001   7.10701397E-001   9.89958231E-001
   2.00000000E+002   9.90978369E-001   7.10702101E-001   9.90961409E-001
   2.05000000E+002   9.91777734E-001   7.10702704E-001   9.91762726E-001
   2.10000000E+002   9.92574196E-001   7.10703224E-001   9.92560879E-001
   2.15000000E+002   9.93200018E-001   7.10703674E-001   9.93188169E-001
   2.20000000E+002   9.94083007E-001   7.10704065E-001   9.94072436E-001
   2.25000000E+002   9.94543511E-001   7.10704405E-001   9.94534058E-001
   2.30000000E+002   9.95103173E-001   7.10704702E-001   9.95094697E-001
   2.35000000E+002   9.95520142E-001   7.10704963E-001   9.95512527E-001
   2.40000000E+002   9.95967493E-001   7.10705192E-001   9.95960635E-001
   2.45000000E+002   9.96480746E-001   7.10705394E-001   9.96474558E-001
