# ./jetvheto -in n3lo-fixed-order/H125-LHC13-R04-mb-0-mt-1725-xmur100-xmuf100-log.fxd -xQ 1.0 -out benchmarks-n3lo-smallR/H125-LHC13-R04-mb-0-mt-1725-xmur100-xmuf100-xQ100-N3LO+NNLLb.R0-2.0.res -scheme b -order 2 -ptmax 500.01 -small-r -fixed_order 3 -loop-mass t -R0 2.0
# process = H    
# collider = pp   
# rts =  13000.000
# M   =    125.000
# muR =    125.000
# muF =    125.000
# Q   =    125.000
# p   =      5.000
# include_c1_squared =   F
# loop_mass  = t   
# alphas(MZ) =    0.11800
# alphas(M) =    0.11264
# alphas(muR) =    0.11264
# Rjet =      0.400
# order = NNLL
# pdf name and set = PDF4LHC15_nnlo_mc.LHgrid,    0
# matching scheme = b
# total cross sections [nb] at LO, NLOdiff, NNLOdiff, N3LOdiff =     0.013801    0.017514    0.010146    0.003834
#----------------------------------------------------------------------
# the lines that follow give the jet-veto efficiencies as a function of pt
#         pt            matched eff      resummed eff     fixed-order eff
   2.00000000E+001   4.87980918E-001   6.29345766E-001   4.21593782E-001
   2.50000000E+001   5.68703929E-001   7.12676946E-001   5.13960990E-001
   3.00000000E+001   6.37331129E-001   7.70468775E-001   5.91015610E-001
   3.50000000E+001   6.90809506E-001   8.10212117E-001   6.50645918E-001
   4.00000000E+001   7.34146474E-001   8.37026090E-001   6.98836983E-001
   4.50000000E+001   7.69165164E-001   8.54428866E-001   7.37928057E-001
   5.00000000E+001   7.98859316E-001   8.64906590E-001   7.71030473E-001
   5.50000000E+001   8.24204274E-001   8.70259292E-001   7.99275639E-001
   6.00000000E+001   8.45408802E-001   8.71804032E-001   8.23059681E-001
   6.50000000E+001   8.64402073E-001   8.70526040E-001   8.44243758E-001
   7.00000000E+001   8.80195964E-001   8.67184315E-001   8.62070819E-001
   7.50000000E+001   8.93116793E-001   8.62371814E-001   8.76925464E-001
   8.00000000E+001   9.04415140E-001   8.56561508E-001   8.89967148E-001
   8.50000000E+001   9.14631399E-001   8.50134045E-001   9.01728487E-001
   9.00000000E+001   9.23208722E-001   8.43397521E-001   9.11747759E-001
   9.50000000E+001   9.31092230E-001   8.36597331E-001   9.20909613E-001
   1.00000000E+002   9.37560795E-001   8.29927272E-001   9.28579537E-001
   1.05000000E+002   9.43359308E-001   8.23534774E-001   9.35454626E-001
   1.10000000E+002   9.48573455E-001   8.17525464E-001   9.41628668E-001
   1.15000000E+002   9.53263366E-001   8.11969085E-001   9.47177133E-001
   1.20000000E+002   9.57313607E-001   8.06903445E-001   9.51996886E-001
   1.25000000E+002   9.60804980E-001   8.02340327E-001   9.56173934E-001
   1.30000000E+002   9.64402201E-001   7.98271230E-001   9.60356305E-001
   1.35000000E+002   9.67537343E-001   7.94672913E-001   9.64008440E-001
   1.40000000E+002   9.70162936E-001   7.91512402E-001   9.67091995E-001
   1.45000000E+002   9.72712054E-001   7.88751200E-001   9.70034899E-001
   1.50000000E+002   9.74859762E-001   7.86348625E-001   9.72527497E-001
   1.55000000E+002   9.77254166E-001   7.84264191E-001   9.75212455E-001
   1.60000000E+002   9.78820363E-001   7.82459252E-001   9.77041107E-001
   1.65000000E+002   9.80555845E-001   7.80898057E-001   9.78998050E-001
   1.70000000E+002   9.82074975E-001   7.79548236E-001   9.80709596E-001
   1.75000000E+002   9.83571029E-001   7.78380968E-001   9.82370623E-001
   1.80000000E+002   9.84952614E-001   7.77370911E-001   9.83895197E-001
   1.85000000E+002   9.86197763E-001   7.76495992E-001   9.85264523E-001
   1.90000000E+002   9.87048582E-001   7.75737121E-001   9.86225466E-001
   1.95000000E+002   9.88186560E-001   7.75077872E-001   9.87456496E-001
   2.00000000E+002   9.89149545E-001   7.74504165E-001   9.88501106E-001
   2.05000000E+002   9.89976780E-001   7.74003959E-001   9.89399966E-001
   2.10000000E+002   9.90718294E-001   7.73566972E-001   9.90204115E-001
   2.15000000E+002   9.91555715E-001   7.73184431E-001   9.91095719E-001
   2.20000000E+002   9.92153471E-001   7.72848852E-001   9.91741805E-001
   2.25000000E+002   9.92791803E-001   7.72553847E-001   9.92422310E-001
   2.30000000E+002   9.93388923E-001   7.72293961E-001   9.93056602E-001
   2.35000000E+002   9.93942965E-001   7.72064529E-001   9.93643503E-001
   2.40000000E+002   9.94311800E-001   7.71861559E-001   9.94041766E-001
   2.45000000E+002   9.94819726E-001   7.71681627E-001   9.94575393E-001
