# ./jetvheto -in n3lo-fixed-order/H125-LHC13-R04-mb-475-mt-1725-xmur025-xmuf050-log.fxd -xQ 0.25 -out benchmarks-n3lo-smallR/H125-LHC13-R04-mb-475-mt-1725-xmur025-xmuf050-xQ025-NNLO+NNLLb.R0-0.5.res -scheme b -order 2 -ptmax 500.01 -fixed_order 2 -small-r -loop-mass t+b -R0 0.5
# process = H    
# collider = pp   
# rts =  13000.000
# M   =    125.000
# muR =     31.250
# muF =     62.500
# Q   =     31.250
# p   =      5.000
# include_c1_squared =   F
# loop_mass  = t+b 
# alphas(MZ) =    0.11800
# alphas(M) =    0.11264
# alphas(muR) =    0.14091
# Rjet =      0.400
# order = NNLL
# pdf name and set = PDF4LHC15_nnlo_mc.LHgrid,    0
# matching scheme = b
# total cross sections [nb] at LO, NLOdiff, NNLOdiff, N3LOdiff =     0.017683    0.024805    0.005009   -0.002663
#----------------------------------------------------------------------
# the lines that follow give the jet-veto efficiencies as a function of pt
#         pt            matched eff      resummed eff     fixed-order eff
   2.00000000E+001   3.83092568E-001   4.23669024E-001   3.45013482E-001
   2.50000000E+001   4.68250326E-001   4.82919680E-001   4.46678028E-001
   3.00000000E+001   5.40015397E-001   5.17899652E-001   5.28145480E-001
   3.50000000E+001   6.00750156E-001   5.36990079E-001   5.94218939E-001
   4.00000000E+001   6.52174296E-001   5.47036100E-001   6.48501749E-001
   4.50000000E+001   6.96060384E-001   5.52350635E-001   6.93918270E-001
   5.00000000E+001   7.33516587E-001   5.55247225E-001   7.32217372E-001
   5.50000000E+001   7.65470274E-001   5.56888978E-001   7.64650938E-001
   6.00000000E+001   7.92922807E-001   5.57857679E-001   7.92387018E-001
   6.50000000E+001   8.16624740E-001   5.58451258E-001   8.16263144E-001
   7.00000000E+001   8.37320825E-001   5.58827636E-001   8.37069884E-001
   7.50000000E+001   8.55161018E-001   5.59073694E-001   8.54982301E-001
   8.00000000E+001   8.70859577E-001   5.59238981E-001   8.70729506E-001
   8.50000000E+001   8.84692740E-001   5.59352726E-001   8.84596193E-001
   9.00000000E+001   8.96821924E-001   5.59432704E-001   8.96749054E-001
   9.50000000E+001   9.07430462E-001   5.59490035E-001   9.07374553E-001
   1.00000000E+002   9.16909352E-001   5.59531850E-001   9.16865875E-001
   1.05000000E+002   9.25260409E-001   5.59562830E-001   9.25226146E-001
   1.10000000E+002   9.32687635E-001   5.59586111E-001   9.32660346E-001
   1.15000000E+002   9.39334519E-001   5.59603834E-001   9.39312551E-001
   1.20000000E+002   9.45265707E-001   5.59617487E-001   9.45247859E-001
   1.25000000E+002   9.50634011E-001   5.59628118E-001   9.50619386E-001
   1.30000000E+002   9.55366326E-001   5.59636480E-001   9.55354243E-001
   1.35000000E+002   9.59652196E-001   5.59643119E-001   9.59642145E-001
   1.40000000E+002   9.63529092E-001   5.59648434E-001   9.63520673E-001
   1.45000000E+002   9.66994940E-001   5.59652723E-001   9.66987843E-001
   1.50000000E+002   9.70167859E-001   5.59656210E-001   9.70161843E-001
   1.55000000E+002   9.73019849E-001   5.59659065E-001   9.73014721E-001
   1.60000000E+002   9.75596189E-001   5.59661417E-001   9.75591796E-001
   1.65000000E+002   9.77906364E-001   5.59663367E-001   9.77902582E-001
   1.70000000E+002   9.80014879E-001   5.59664993E-001   9.80011610E-001
   1.75000000E+002   9.81963101E-001   5.59666355E-001   9.81960264E-001
   1.80000000E+002   9.83681764E-001   5.59667503E-001   9.83679291E-001
   1.85000000E+002   9.85274523E-001   5.59668475E-001   9.85272360E-001
   1.90000000E+002   9.86724980E-001   5.59669301E-001   9.86723082E-001
   1.95000000E+002   9.88031357E-001   5.59670006E-001   9.88029685E-001
   2.00000000E+002   9.89216791E-001   5.59670611E-001   9.89215313E-001
   2.05000000E+002   9.90311507E-001   5.59671131E-001   9.90310198E-001
   2.10000000E+002   9.91273792E-001   5.59671581E-001   9.91272628E-001
   2.15000000E+002   9.92193197E-001   5.59671971E-001   9.92192159E-001
   2.20000000E+002   9.93032770E-001   5.59672310E-001   9.93031843E-001
   2.25000000E+002   9.93751499E-001   5.59672605E-001   9.93750669E-001
   2.30000000E+002   9.94477755E-001   5.59672864E-001   9.94477010E-001
   2.35000000E+002   9.95090887E-001   5.59673091E-001   9.95090217E-001
   2.40000000E+002   9.95665210E-001   5.59673291E-001   9.95664606E-001
   2.45000000E+002   9.96182906E-001   5.59673468E-001   9.96182360E-001
