# ./jetvheto -in n3lo-fixed-order/H125-LHC13-R04-heft-xmur025-xmuf025-log.fxd -xQ 0.50 -out benchmarks-n3lo-smallR/H125-LHC13-R04-heft-xmur025-xmuf025-xQ050-N3LO+NNLLa.res -scheme a -order 2 -ptmax 500.01 -fixed_order 3
# process = H    
# collider = pp   
# rts =  13000.000
# M   =    125.000
# muR =     31.250
# muF =     31.250
# Q   =     62.500
# p   =      5.000
# include_c1_squared =   F
# loop_mass  = none
# alphas(MZ) =    0.11800
# alphas(M) =    0.11264
# alphas(muR) =    0.14091
# Rjet =      0.400
# order = NNLL
# pdf name and set = PDF4LHC15_nnlo_mc.LHgrid,    0
# matching scheme = a
# total cross sections [nb] at LO, NLOdiff, NNLOdiff, N3LOdiff =     0.017443    0.024066    0.006043   -0.002471
#----------------------------------------------------------------------
# the lines that follow give the jet-veto efficiencies as a function of pt
#         pt            matched eff      resummed eff     fixed-order eff
   2.00000000E+001   4.68443493E-001   4.85981064E-001   4.52894570E-001
   2.50000000E+001   5.57267375E-001   5.58164359E-001   5.42537588E-001
   3.00000000E+001   6.26391649E-001   6.08435052E-001   6.13076270E-001
   3.50000000E+001   6.80943560E-001   6.42986661E-001   6.69412150E-001
   4.00000000E+001   7.25771705E-001   6.66275575E-001   7.16271778E-001
   4.50000000E+001   7.63613227E-001   6.81519262E-001   7.56031916E-001
   5.00000000E+001   7.94666187E-001   6.91132515E-001   7.88729624E-001
   5.50000000E+001   8.22479669E-001   6.96954766E-001   8.17925477E-001
   6.00000000E+001   8.44926266E-001   7.00345366E-001   8.41437580E-001
   6.50000000E+001   8.61809679E-001   7.02254166E-001   8.59133924E-001
   7.00000000E+001   8.78732898E-001   7.03301449E-001   8.76696603E-001
   7.50000000E+001   8.93115398E-001   7.03866232E-001   8.91562355E-001
   8.00000000E+001   9.04466028E-001   7.04167829E-001   9.03270471E-001
   8.50000000E+001   9.15391878E-001   7.04327923E-001   9.14467346E-001
   9.00000000E+001   9.24891052E-001   7.04412444E-001   9.24170466E-001
   9.50000000E+001   9.30937578E-001   7.04456663E-001   9.30369963E-001
   1.00000000E+002   9.39027129E-001   7.04479371E-001   9.38578001E-001
   1.05000000E+002   9.44434986E-001   7.04490598E-001   9.44075791E-001
   1.10000000E+002   9.50761092E-001   7.04495716E-001   9.50472153E-001
   1.15000000E+002   9.55951616E-001   7.04497620E-001   9.55717235E-001
   1.20000000E+002   9.59574028E-001   7.04497873E-001   9.59382367E-001
   1.25000000E+002   9.62609673E-001   7.04497319E-001   9.62451953E-001
   1.30000000E+002   9.66202728E-001   7.04496413E-001   9.66072159E-001
   1.35000000E+002   9.68945213E-001   7.04495393E-001   9.68836382E-001
   1.40000000E+002   9.71613799E-001   7.04494383E-001   9.71522619E-001
   1.45000000E+002   9.74084037E-001   7.04493441E-001   9.74007208E-001
   1.50000000E+002   9.76085484E-001   7.04492591E-001   9.76020417E-001
   1.55000000E+002   9.77958221E-001   7.04491839E-001   9.77902848E-001
   1.60000000E+002   9.80197102E-001   7.04491180E-001   9.80149780E-001
   1.65000000E+002   9.81548922E-001   7.04490608E-001   9.81508266E-001
   1.70000000E+002   9.82565994E-001   7.04490112E-001   9.82530922E-001
   1.75000000E+002   9.84239082E-001   7.04489684E-001   9.84208723E-001
   1.80000000E+002   9.85057859E-001   7.04489314E-001   9.85031464E-001
   1.85000000E+002   9.86291793E-001   7.04488994E-001   9.86268779E-001
   1.90000000E+002   9.87126956E-001   7.04488717E-001   9.87106809E-001
   1.95000000E+002   9.88179447E-001   7.04488478E-001   9.88161757E-001
   2.00000000E+002   9.88757177E-001   7.04488270E-001   9.88741591E-001
   2.05000000E+002   9.89389426E-001   7.04488089E-001   9.89375653E-001
   2.10000000E+002   9.89967113E-001   7.04487931E-001   9.89954905E-001
   2.15000000E+002   9.90801159E-001   7.04487793E-001   9.90790317E-001
   2.20000000E+002   9.91242464E-001   7.04487673E-001   9.91232803E-001
   2.25000000E+002   9.91904725E-001   7.04487567E-001   9.91896097E-001
   2.30000000E+002   9.92298711E-001   7.04487474E-001   9.92290987E-001
   2.35000000E+002   9.92514442E-001   7.04487392E-001   9.92507509E-001
   2.40000000E+002   9.93053785E-001   7.04487319E-001   9.93047551E-001
   2.45000000E+002   9.93477430E-001   7.04487255E-001   9.93471813E-001
