# ./jetvheto -in n3lo-fixed-order/H125-LHC13-R04-mb-475-mt-1725-xmur050-xmuf050-log.fxd -xQ 1.0 -out benchmarks-n3lo-smallR/H125-LHC13-R04-mb-475-mt-1725-xmur050-xmuf050-xQ100-NNLO+NNLLa.R0-0.5.res -scheme a -order 2 -ptmax 500.01 -fixed_order 2 -small-r -loop-mass t+b -R0 0.5
# process = H    
# collider = pp   
# rts =  13000.000
# M   =    125.000
# muR =     62.500
# muF =     62.500
# Q   =    125.000
# p   =      5.000
# include_c1_squared =   F
# loop_mass  = t+b 
# alphas(MZ) =    0.11800
# alphas(M) =    0.11264
# alphas(muR) =    0.12516
# Rjet =      0.400
# order = NNLL
# pdf name and set = PDF4LHC15_nnlo_mc.LHgrid,    0
# matching scheme = a
# total cross sections [nb] at LO, NLOdiff, NNLOdiff, N3LOdiff =     0.014147    0.020254    0.008998    0.001413
#----------------------------------------------------------------------
# the lines that follow give the jet-veto efficiencies as a function of pt
#         pt            matched eff      resummed eff     fixed-order eff
   2.00000000E+001   5.10903736E-001   5.66967137E-001   4.51585809E-001
   2.50000000E+001   6.02088673E-001   6.47653774E-001   5.37845647E-001
   3.00000000E+001   6.73372804E-001   7.03334216E-001   6.05618957E-001
   3.50000000E+001   7.29678017E-001   7.41377472E-001   6.60103954E-001
   4.00000000E+001   7.74467115E-001   7.66881632E-001   7.04623301E-001
   4.50000000E+001   8.10691861E-001   7.83317307E-001   7.41826274E-001
   5.00000000E+001   8.40022804E-001   7.93113936E-001   7.73153273E-001
   5.50000000E+001   8.63796218E-001   7.98020251E-001   7.99700298E-001
   6.00000000E+001   8.83213598E-001   7.99310821E-001   8.22453602E-001
   6.50000000E+001   8.99096281E-001   7.97940886E-001   8.42063586E-001
   7.00000000E+001   9.12252101E-001   7.94642957E-001   8.59177351E-001
   7.50000000E+001   9.22963348E-001   7.89981534E-001   8.73986041E-001
   8.00000000E+001   9.31889352E-001   7.84401861E-001   8.87031290E-001
   8.50000000E+001   9.39354651E-001   7.78261441E-001   8.98561694E-001
   9.00000000E+001   9.45518706E-001   7.71848065E-001   9.08676257E-001
   9.50000000E+001   9.50645654E-001   7.65391023E-001   9.17587048E-001
   1.00000000E+002   9.55054692E-001   7.59071250E-001   9.25559652E-001
   1.05000000E+002   9.58816703E-001   7.53025545E-001   9.32641906E-001
   1.10000000E+002   9.62061093E-001   7.47351478E-001   9.38939368E-001
   1.15000000E+002   9.64957564E-001   7.42112646E-001   9.44611611E-001
   1.20000000E+002   9.67532200E-001   7.37342152E-001   9.49685968E-001
   1.25000000E+002   9.69912707E-001   7.33049037E-001   9.54296709E-001
   1.30000000E+002   9.72033523E-001   7.29223803E-001   9.58395322E-001
   1.35000000E+002   9.74003280E-001   7.25843428E-001   9.62105002E-001
   1.40000000E+002   9.75857501E-001   7.22876030E-001   9.65482383E-001
   1.45000000E+002   9.77571089E-001   7.20284783E-001   9.68524408E-001
   1.50000000E+002   9.79203172E-001   7.18030974E-001   9.71310382E-001
   1.55000000E+002   9.80723731E-001   7.16076246E-001   9.73831721E-001
   1.60000000E+002   9.82144453E-001   7.14384106E-001   9.76118993E-001
   1.65000000E+002   9.83461369E-001   7.12920789E-001   9.78185892E-001
   1.70000000E+002   9.84696879E-001   7.11655823E-001   9.80070053E-001
   1.75000000E+002   9.85880615E-001   7.10562125E-001   9.81814911E-001
   1.80000000E+002   9.86954239E-001   7.09615871E-001   9.83374805E-001
   1.85000000E+002   9.87982503E-001   7.08796323E-001   9.84824510E-001
   1.90000000E+002   9.88937255E-001   7.08085557E-001   9.86145135E-001
   1.95000000E+002   9.89821248E-001   7.07468157E-001   9.87347351E-001
   2.00000000E+002   9.90640251E-001   7.06930913E-001   9.88443563E-001
   2.05000000E+002   9.91410210E-001   7.06462531E-001   9.89455399E-001
   2.10000000E+002   9.92101925E-001   7.06053372E-001   9.90358717E-001
   2.15000000E+002   9.92774858E-001   7.05695211E-001   9.91216951E-001
   2.20000000E+002   9.93399691E-001   7.05381033E-001   9.92004483E-001
   2.25000000E+002   9.93948902E-001   7.05104853E-001   9.92696938E-001
   2.30000000E+002   9.94499444E-001   7.04861560E-001   9.93373635E-001
   2.35000000E+002   9.94977947E-001   7.04646784E-001   9.93963683E-001
   2.40000000E+002   9.95432354E-001   7.04456784E-001   9.94516819E-001
   2.45000000E+002   9.95843592E-001   7.04288355E-001   9.95015643E-001
