# ./jetvheto -in n3lo-fixed-order/H125-LHC13-R04-mb-0-mt-1725-xmur200-xmuf100-log.fxd -xQ 0.25 -out benchmarks-n3lo-smallR/H125-LHC13-R04-mb-0-mt-1725-xmur200-xmuf100-xQ025-N3LO+NNLLb.R0-1.5.res -scheme b -order 2 -ptmax 500.01 -small-r -fixed_order 3 -loop-mass t -R0 1.5
# process = H    
# collider = pp   
# rts =  13000.000
# M   =    125.000
# muR =    250.000
# muF =    125.000
# Q   =     31.250
# p   =      5.000
# include_c1_squared =   F
# loop_mass  = t   
# alphas(MZ) =    0.11800
# alphas(M) =    0.11264
# alphas(muR) =    0.10244
# Rjet =      0.400
# order = NNLL
# pdf name and set = PDF4LHC15_nnlo_mc.LHgrid,    0
# matching scheme = b
# total cross sections [nb] at LO, NLOdiff, NNLOdiff, N3LOdiff =     0.011501    0.015066    0.010526    0.005600
#----------------------------------------------------------------------
# the lines that follow give the jet-veto efficiencies as a function of pt
#         pt            matched eff      resummed eff     fixed-order eff
   2.00000000E+001   4.36609575E-001   5.76214440E-001   4.13869553E-001
   2.50000000E+001   5.20038320E-001   6.51650227E-001   5.08802619E-001
   3.00000000E+001   5.91009373E-001   6.95951353E-001   5.85793323E-001
   3.50000000E+001   6.48208007E-001   7.20037813E-001   6.45743736E-001
   4.00000000E+001   6.95396680E-001   7.32683287E-001   6.94202670E-001
   4.50000000E+001   7.34232854E-001   7.39364117E-001   7.33629119E-001
   5.00000000E+001   7.67188363E-001   7.43002588E-001   7.66872624E-001
   5.50000000E+001   7.95296738E-001   7.45063917E-001   7.95126194E-001
   6.00000000E+001   8.19119816E-001   7.46279869E-001   8.19023976E-001
   6.50000000E+001   8.40135284E-001   7.47024834E-001   8.40080780E-001
   7.00000000E+001   8.57950575E-001   7.47497158E-001   8.57918516E-001
   7.50000000E+001   8.73038704E-001   7.47805920E-001   8.73019019E-001
   8.00000000E+001   8.86279868E-001   7.48013320E-001   8.86267566E-001
   8.50000000E+001   8.98107524E-001   7.48156041E-001   8.98099833E-001
   9.00000000E+001   9.08304513E-001   7.48256391E-001   9.08299567E-001
   9.50000000E+001   9.17522170E-001   7.48328324E-001   9.17519023E-001
   1.00000000E+002   9.25398326E-001   7.48380790E-001   9.25396247E-001
   1.05000000E+002   9.32447010E-001   7.48419660E-001   9.32445635E-001
   1.10000000E+002   9.38745531E-001   7.48448870E-001   9.38744628E-001
   1.15000000E+002   9.44423687E-001   7.48471107E-001   9.44423095E-001
   1.20000000E+002   9.49400486E-001   7.48488236E-001   9.49400094E-001
   1.25000000E+002   9.53774750E-001   7.48501575E-001   9.53774485E-001
   1.30000000E+002   9.58014190E-001   7.48512067E-001   9.58014030E-001
   1.35000000E+002   9.61750373E-001   7.48520395E-001   9.61750279E-001
   1.40000000E+002   9.64980613E-001   7.48527064E-001   9.64980558E-001
   1.45000000E+002   9.68022958E-001   7.48532445E-001   9.68022931E-001
   1.50000000E+002   9.70647762E-001   7.48536821E-001   9.70647752E-001
   1.55000000E+002   9.73339619E-001   7.48540403E-001   9.73339626E-001
   1.60000000E+002   9.75363835E-001   7.48543354E-001   9.75363845E-001
   1.65000000E+002   9.77406969E-001   7.48545800E-001   9.77406984E-001
   1.70000000E+002   9.79223703E-001   7.48547840E-001   9.79223721E-001
   1.75000000E+002   9.80943047E-001   7.48549550E-001   9.80943066E-001
   1.80000000E+002   9.82526457E-001   7.48550990E-001   9.82526477E-001
   1.85000000E+002   9.83954123E-001   7.48552209E-001   9.83954143E-001
   1.90000000E+002   9.85062714E-001   7.48553245E-001   9.85062731E-001
   1.95000000E+002   9.86325385E-001   7.48554130E-001   9.86325403E-001
   2.00000000E+002   9.87421015E-001   7.48554889E-001   9.87421032E-001
   2.05000000E+002   9.88390696E-001   7.48555542E-001   9.88390712E-001
   2.10000000E+002   9.89261732E-001   7.48556106E-001   9.89261746E-001
   2.15000000E+002   9.90167035E-001   7.48556595E-001   9.90167048E-001
   2.20000000E+002   9.90883376E-001   7.48557020E-001   9.90883388E-001
   2.25000000E+002   9.91601226E-001   7.48557391E-001   9.91601237E-001
   2.30000000E+002   9.92268963E-001   7.48557716E-001   9.92268973E-001
   2.35000000E+002   9.92889283E-001   7.48558001E-001   9.92889292E-001
   2.40000000E+002   9.93357333E-001   7.48558252E-001   9.93357342E-001
   2.45000000E+002   9.93907877E-001   7.48558473E-001   9.93907885E-001
