# ./jetvheto -in n3lo-fixed-order/H125-LHC13-R04-mb-475-mt-1725-xmur025-xmuf050-log.fxd -xQ 0.0625 -out benchmarks-n3lo-smallR/H125-LHC13-R04-mb-475-mt-1725-xmur025-xmuf050-xQ0625-NNLO+NNLLa.res -scheme a -order 2 -ptmax 500.01 -fixed_order 2 -loop-mass t+b
# process = H    
# collider = pp   
# rts =  13000.000
# M   =    125.000
# muR =     31.250
# muF =     62.500
# Q   =      7.812
# p   =      5.000
# include_c1_squared =   F
# loop_mass  = t+b 
# alphas(MZ) =    0.11800
# alphas(M) =    0.11264
# alphas(muR) =    0.14091
# Rjet =      0.400
# order = NNLL
# pdf name and set = PDF4LHC15_nnlo_mc.LHgrid,    0
# matching scheme = a
# total cross sections [nb] at LO, NLOdiff, NNLOdiff, N3LOdiff =     0.017683    0.024805    0.005009   -0.002663
#----------------------------------------------------------------------
# the lines that follow give the jet-veto efficiencies as a function of pt
#         pt            matched eff      resummed eff     fixed-order eff
   2.00000000E+001   4.14127809E-001   3.95749032E-002   4.14085672E-001
   2.50000000E+001   5.05020188E-001   3.97318462E-002   5.05029093E-001
   3.00000000E+001   5.77893135E-001   3.97778358E-002   5.77905321E-001
   3.50000000E+001   6.37001864E-001   3.97944662E-002   6.37010945E-001
   4.00000000E+001   6.85563150E-001   3.98014453E-002   6.85569312E-001
   4.50000000E+001   7.26192269E-001   3.98047169E-002   7.26196393E-001
   5.00000000E+001   7.60453840E-001   3.98063876E-002   7.60456629E-001
   5.50000000E+001   7.89467967E-001   3.98073009E-002   7.89469884E-001
   6.00000000E+001   8.14279689E-001   3.98078286E-002   8.14281031E-001
   6.50000000E+001   8.35638322E-001   3.98081480E-002   8.35639279E-001
   7.00000000E+001   8.54251130E-001   3.98083489E-002   8.54251825E-001
   7.50000000E+001   8.70274760E-001   3.98084796E-002   8.70275272E-001
   8.00000000E+001   8.84361458E-001   3.98085671E-002   8.84361842E-001
   8.50000000E+001   8.96765913E-001   3.98086272E-002   8.96766205E-001
   9.00000000E+001   9.07637251E-001   3.98086694E-002   9.07637475E-001
   9.50000000E+001   9.17142278E-001   3.98086996E-002   9.17142453E-001
   1.00000000E+002   9.25632721E-001   3.98087216E-002   9.25632859E-001
   1.05000000E+002   9.33111381E-001   3.98087379E-002   9.33111490E-001
   1.10000000E+002   9.39761622E-001   3.98087502E-002   9.39761709E-001
   1.15000000E+002   9.45712330E-001   3.98087595E-002   9.45712400E-001
   1.20000000E+002   9.51021738E-001   3.98087667E-002   9.51021795E-001
   1.25000000E+002   9.55826816E-001   3.98087722E-002   9.55826863E-001
   1.30000000E+002   9.60062363E-001   3.98087766E-002   9.60062402E-001
   1.35000000E+002   9.63898086E-001   3.98087801E-002   9.63898119E-001
   1.40000000E+002   9.67367606E-001   3.98087829E-002   9.67367633E-001
   1.45000000E+002   9.70469147E-001   3.98087852E-002   9.70469170E-001
   1.50000000E+002   9.73308433E-001   3.98087870E-002   9.73308453E-001
   1.55000000E+002   9.75860462E-001   3.98087885E-002   9.75860478E-001
   1.60000000E+002   9.78165771E-001   3.98087897E-002   9.78165785E-001
   1.65000000E+002   9.80232873E-001   3.98087908E-002   9.80232885E-001
   1.70000000E+002   9.82119493E-001   3.98087916E-002   9.82119504E-001
   1.75000000E+002   9.83862651E-001   3.98087923E-002   9.83862660E-001
   1.80000000E+002   9.85400398E-001   3.98087929E-002   9.85400406E-001
   1.85000000E+002   9.86825470E-001   3.98087934E-002   9.86825476E-001
   1.90000000E+002   9.88123205E-001   3.98087939E-002   9.88123211E-001
   1.95000000E+002   9.89292020E-001   3.98087942E-002   9.89292025E-001
   2.00000000E+002   9.90352617E-001   3.98087946E-002   9.90352622E-001
   2.05000000E+002   9.91332040E-001   3.98087948E-002   9.91332044E-001
   2.10000000E+002   9.92192977E-001   3.98087951E-002   9.92192981E-001
   2.15000000E+002   9.93015539E-001   3.98087953E-002   9.93015542E-001
   2.20000000E+002   9.93766673E-001   3.98087954E-002   9.93766676E-001
   2.25000000E+002   9.94409695E-001   3.98087956E-002   9.94409698E-001
   2.30000000E+002   9.95059439E-001   3.98087957E-002   9.95059442E-001
   2.35000000E+002   9.95607981E-001   3.98087959E-002   9.95607983E-001
   2.40000000E+002   9.96121797E-001   3.98087960E-002   9.96121799E-001
   2.45000000E+002   9.96584951E-001   3.98087961E-002   9.96584953E-001
