# ./jetvheto -in n3lo-fixed-order/H125-LHC13-R04-heft-xmur100-xmuf100-log.fxd -xQ 0.25 -out benchmarks-n3lo-smallR/H125-LHC13-R04-heft-xmur100-xmuf100-xQ025-N3LO+NNLLa.R0-1.0.res -scheme a -order 2 -ptmax 500.01 -fixed_order 3 -small-r -R0 1.0
# process = H    
# collider = pp   
# rts =  13000.000
# M   =    125.000
# muR =    125.000
# muF =    125.000
# Q   =     31.250
# p   =      5.000
# include_c1_squared =   F
# loop_mass  = none
# alphas(MZ) =    0.11800
# alphas(M) =    0.11264
# alphas(muR) =    0.11264
# Rjet =      0.400
# order = NNLL
# pdf name and set = PDF4LHC15_nnlo_mc.LHgrid,    0
# matching scheme = a
# total cross sections [nb] at LO, NLOdiff, NNLOdiff, N3LOdiff =     0.012945    0.016716    0.010146    0.003834
#----------------------------------------------------------------------
# the lines that follow give the jet-veto efficiencies as a function of pt
#         pt            matched eff      resummed eff     fixed-order eff
   2.00000000E+001   4.58384553E-001   5.36146831E-001   4.60774143E-001
   2.50000000E+001   5.43713040E-001   6.08198139E-001   5.45786875E-001
   3.00000000E+001   6.15353890E-001   6.50572225E-001   6.17068533E-001
   3.50000000E+001   6.70985006E-001   6.73630041E-001   6.72113648E-001
   4.00000000E+001   7.15946340E-001   6.85741240E-001   7.16667414E-001
   4.50000000E+001   7.52412364E-001   6.92141514E-001   7.52873009E-001
   5.00000000E+001   7.83258158E-001   6.95627711E-001   7.83562730E-001
   5.50000000E+001   8.09576450E-001   6.97602939E-001   8.09784074E-001
   6.00000000E+001   8.31727659E-001   6.98768159E-001   8.31871310E-001
   6.50000000E+001   8.51496698E-001   6.99482063E-001   8.51599627E-001
   7.00000000E+001   8.68144655E-001   6.99934703E-001   8.68219188E-001
   7.50000000E+001   8.81961715E-001   7.00230601E-001   8.82015993E-001
   8.00000000E+001   8.94084844E-001   7.00429361E-001   8.94125116E-001
   8.50000000E+001   9.05038662E-001   7.00566137E-001   9.05069202E-001
   9.00000000E+001   9.14401249E-001   7.00662308E-001   9.14424589E-001
   9.50000000E+001   9.22965622E-001   7.00731245E-001   9.22983790E-001
   1.00000000E+002   9.30108426E-001   7.00781526E-001   9.30122626E-001
   1.05000000E+002   9.36518182E-001   7.00818778E-001   9.36529413E-001
   1.10000000E+002   9.42308135E-001   7.00846771E-001   9.42317122E-001
   1.15000000E+002   9.47491745E-001   7.00868082E-001   9.47498999E-001
   1.20000000E+002   9.52006790E-001   7.00884498E-001   9.52012685E-001
   1.25000000E+002   9.55908384E-001   7.00897282E-001   9.55913202E-001
   1.30000000E+002   9.59809219E-001   7.00907337E-001   9.59813209E-001
   1.35000000E+002   9.63251365E-001   7.00915318E-001   9.63254687E-001
   1.40000000E+002   9.66124009E-001   7.00921709E-001   9.66126784E-001
   1.45000000E+002   9.68887158E-001   7.00926867E-001   9.68889494E-001
   1.50000000E+002   9.71223384E-001   7.00931060E-001   9.71225357E-001
   1.55000000E+002   9.73730122E-001   7.00934493E-001   9.73731807E-001
   1.60000000E+002   9.75442915E-001   7.00937321E-001   9.75444349E-001
   1.65000000E+002   9.77282055E-001   7.00939666E-001   9.77283286E-001
   1.70000000E+002   9.78903560E-001   7.00941620E-001   9.78904621E-001
   1.75000000E+002   9.80484928E-001   7.00943259E-001   9.80485847E-001
   1.80000000E+002   9.81940389E-001   7.00944639E-001   9.81941189E-001
   1.85000000E+002   9.83250428E-001   7.00945807E-001   9.83251126E-001
   1.90000000E+002   9.84169914E-001   7.00946800E-001   9.84170523E-001
   1.95000000E+002   9.85361778E-001   7.00947648E-001   9.85362313E-001
   2.00000000E+002   9.86382933E-001   7.00948376E-001   9.86383405E-001
   2.05000000E+002   9.87259648E-001   7.00949001E-001   9.87260065E-001
   2.10000000E+002   9.88055925E-001   7.00949542E-001   9.88056295E-001
   2.15000000E+002   9.88933896E-001   7.00950011E-001   9.88934225E-001
   2.20000000E+002   9.89579444E-001   7.00950418E-001   9.89579737E-001
   2.25000000E+002   9.90260890E-001   7.00950774E-001   9.90261153E-001
   2.30000000E+002   9.90900686E-001   7.00951085E-001   9.90900921E-001
   2.35000000E+002   9.91501594E-001   7.00951358E-001   9.91501805E-001
   2.40000000E+002   9.91923070E-001   7.00951598E-001   9.91923260E-001
   2.45000000E+002   9.92472840E-001   7.00951811E-001   9.92473011E-001
