# ./jetvheto -in n3lo-fixed-order/H125-LHC13-R04-mb-0-mt-1725-xmur050-xmuf050-log.fxd -xQ 0.5 -out benchmarks-n3lo-smallR/H125-LHC13-R04-mb-0-mt-1725-xmur050-xmuf050-xQ050-NNLO+NNLLa.R0-0.5.res -scheme a -order 2 -ptmax 500.01 -small-r -fixed_order 2 -loop-mass t -R0 0.5
# process = H    
# collider = pp   
# rts =  13000.000
# M   =    125.000
# muR =     62.500
# muF =     62.500
# Q   =     62.500
# p   =      5.000
# include_c1_squared =   F
# loop_mass  = t   
# alphas(MZ) =    0.11800
# alphas(M) =    0.11264
# alphas(muR) =    0.12516
# Rjet =      0.400
# order = NNLL
# pdf name and set = PDF4LHC15_nnlo_mc.LHgrid,    0
# matching scheme = a
# total cross sections [nb] at LO, NLOdiff, NNLOdiff, N3LOdiff =     0.015885    0.020561    0.008998    0.001413
#----------------------------------------------------------------------
# the lines that follow give the jet-veto efficiencies as a function of pt
#         pt            matched eff      resummed eff     fixed-order eff
   2.00000000E+001   4.74953435E-001   4.97640390E-001   4.69057413E-001
   2.50000000E+001   5.63192235E-001   5.77046966E-001   5.55288671E-001
   3.00000000E+001   6.32075298E-001   6.33203575E-001   6.22338019E-001
   3.50000000E+001   6.86572425E-001   6.72429760E-001   6.75875821E-001
   4.00000000E+001   7.30111929E-001   6.99330773E-001   7.19396295E-001
   4.50000000E+001   7.65338946E-001   7.17302389E-001   7.55344248E-001
   5.00000000E+001   7.94504076E-001   7.28935711E-001   7.85683467E-001
   5.50000000E+001   8.18466326E-001   7.36225136E-001   8.11020538E-001
   6.00000000E+001   8.38847570E-001   7.40666059E-001   8.32757246E-001
   6.50000000E+001   8.56373325E-001   7.43318708E-001   8.51501964E-001
   7.00000000E+001   8.71576037E-001   7.44890417E-001   8.67734675E-001
   7.50000000E+001   8.84771141E-001   7.45825376E-001   8.81763053E-001
   8.00000000E+001   8.96438287E-001   7.46389583E-001   8.94087077E-001
   8.50000000E+001   9.06787788E-001   7.46737484E-001   9.04946611E-001
   9.00000000E+001   9.15965173E-001   7.46957800E-001   9.14517318E-001
   9.50000000E+001   9.24048289E-001   7.47101374E-001   9.22903074E-001
   1.00000000E+002   9.31352180E-001   7.47197650E-001   9.30440166E-001
   1.05000000E+002   9.37766625E-001   7.47263996E-001   9.37035250E-001
   1.10000000E+002   9.43527392E-001   7.47310886E-001   9.42936658E-001
   1.15000000E+002   9.48713158E-001   7.47344795E-001   9.48232561E-001
   1.20000000E+002   9.53391875E-001   7.47369825E-001   9.52998144E-001
   1.25000000E+002   9.57651214E-001   7.47388640E-001   9.57326460E-001
   1.30000000E+002   9.61418208E-001   7.47403014E-001   9.61148649E-001
   1.35000000E+002   9.64826877E-001   7.47414153E-001   9.64601780E-001
   1.40000000E+002   9.67940008E-001   7.47422897E-001   9.67750932E-001
   1.45000000E+002   9.70772342E-001   7.47429839E-001   9.70612637E-001
   1.50000000E+002   9.73368160E-001   7.47435407E-001   9.73232562E-001
   1.55000000E+002   9.75702689E-001   7.47439913E-001   9.75586996E-001
   1.60000000E+002   9.77826418E-001   7.47443592E-001   9.77727247E-001
   1.65000000E+002   9.79746274E-001   7.47446617E-001   9.79660891E-001
   1.70000000E+002   9.81513424E-001   7.47449122E-001   9.81439603E-001
   1.75000000E+002   9.83117745E-001   7.47451210E-001   9.83053670E-001
   1.80000000E+002   9.84563349E-001   7.47452961E-001   9.84507522E-001
   1.85000000E+002   9.85903093E-001   7.47454437E-001   9.85854277E-001
   1.90000000E+002   9.87128244E-001   7.47455688E-001   9.87085413E-001
   1.95000000E+002   9.88246016E-001   7.47456752E-001   9.88208314E-001
   2.00000000E+002   9.89269262E-001   7.47457663E-001   9.89235973E-001
   2.05000000E+002   9.90207239E-001   7.47458445E-001   9.90177759E-001
   2.10000000E+002   9.91047456E-001   7.47459119E-001   9.91021276E-001
   2.15000000E+002   9.91842953E-001   7.47459703E-001   9.91819641E-001
   2.20000000E+002   9.92569874E-001   7.47460209E-001   9.92549062E-001
   2.25000000E+002   9.93215379E-001   7.47460651E-001   9.93196753E-001
   2.30000000E+002   9.93849806E-001   7.47461037E-001   9.93833097E-001
   2.35000000E+002   9.94395385E-001   7.47461375E-001   9.94380362E-001
   2.40000000E+002   9.94911437E-001   7.47461673E-001   9.94897900E-001
   2.45000000E+002   9.95383429E-001   7.47461936E-001   9.95371206E-001
