# ./jetvheto -in n3lo-fixed-order/H125-LHC13-R04-mb-475-mt-1725-xmur050-xmuf050-log.fxd -xQ 0.75 -out benchmarks-n3lo-smallR/H125-LHC13-R04-mb-475-mt-1725-xmur050-xmuf050-xQ075-N3LO+NNLLa.R0-0.5.res -scheme a -order 2 -ptmax 500.01 -fixed_order 3 -small-r -loop-mass t+b -R0 0.5
# process = H    
# collider = pp   
# rts =  13000.000
# M   =    125.000
# muR =     62.500
# muF =     62.500
# Q   =     93.750
# p   =      5.000
# include_c1_squared =   F
# loop_mass  = t+b 
# alphas(MZ) =    0.11800
# alphas(M) =    0.11264
# alphas(muR) =    0.12516
# Rjet =      0.400
# order = NNLL
# pdf name and set = PDF4LHC15_nnlo_mc.LHgrid,    0
# matching scheme = a
# total cross sections [nb] at LO, NLOdiff, NNLOdiff, N3LOdiff =     0.014147    0.020254    0.008998    0.001413
#----------------------------------------------------------------------
# the lines that follow give the jet-veto efficiencies as a function of pt
#         pt            matched eff      resummed eff     fixed-order eff
   2.00000000E+001   4.56797962E-001   5.13404459E-001   4.41074844E-001
   2.50000000E+001   5.44262384E-001   5.91391352E-001   5.26291803E-001
   3.00000000E+001   6.17863464E-001   6.46094573E-001   5.99588615E-001
   3.50000000E+001   6.76346710E-001   6.84167418E-001   6.58104134E-001
   4.00000000E+001   7.21436595E-001   7.10238217E-001   7.03699261E-001
   4.50000000E+001   7.60646331E-001   7.27567467E-001   7.43908515E-001
   5.00000000E+001   7.91731908E-001   7.38491625E-001   7.76267730E-001
   5.50000000E+001   8.18490699E-001   7.44733622E-001   8.04438345E-001
   6.00000000E+001   8.40216867E-001   7.47583147E-001   8.27667847E-001
   6.50000000E+001   8.60183368E-001   7.48035864E-001   8.49073502E-001
   7.00000000E+001   8.75417493E-001   7.46871426E-001   8.65767048E-001
   7.50000000E+001   8.88978056E-001   7.44698726E-001   8.80674091E-001
   8.00000000E+001   9.01230846E-001   7.41985006E-001   8.94138038E-001
   8.50000000E+001   9.12121962E-001   7.39073763E-001   9.06106835E-001
   9.00000000E+001   9.21682863E-001   7.36202128E-001   9.16611008E-001
   9.50000000E+001   9.29318241E-001   7.33518073E-001   9.25078477E-001
   1.00000000E+002   9.36646063E-001   7.31101874E-001   9.33101787E-001
   1.05000000E+002   9.42534237E-001   7.28984514E-001   9.39585604E-001
   1.10000000E+002   9.47951297E-001   7.27164480E-001   9.45495190E-001
   1.15000000E+002   9.53145492E-001   7.25621155E-001   9.51094105E-001
   1.20000000E+002   9.57824526E-001   7.24324525E-001   9.56107678E-001
   1.25000000E+002   9.61734101E-001   7.23241512E-001   9.60296277E-001
   1.30000000E+002   9.65145323E-001   7.22339974E-001   9.63938023E-001
   1.35000000E+002   9.68566129E-001   7.21590582E-001   9.67546891E-001
   1.40000000E+002   9.71693826E-001   7.20967624E-001   9.70830250E-001
   1.45000000E+002   9.74398537E-001   7.20449175E-001   9.73664645E-001
   1.50000000E+002   9.76512714E-001   7.20016865E-001   9.75887820E-001
   1.55000000E+002   9.78947222E-001   7.19655478E-001   9.78411529E-001
   1.60000000E+002   9.81128945E-001   7.19352499E-001   9.80668095E-001
   1.65000000E+002   9.82470678E-001   7.19097682E-001   9.82074144E-001
   1.70000000E+002   9.84193503E-001   7.18882655E-001   9.83850040E-001
   1.75000000E+002   9.85819232E-001   7.18700583E-001   9.85520635E-001
   1.80000000E+002   9.87057483E-001   7.18545879E-001   9.86797346E-001
   1.85000000E+002   9.88202785E-001   7.18413974E-001   9.87975392E-001
   1.90000000E+002   9.89371897E-001   7.18301122E-001   9.89172337E-001
   1.95000000E+002   9.90450488E-001   7.18204246E-001   9.90274812E-001
   2.00000000E+002   9.91401443E-001   7.18120810E-001   9.91246363E-001
   2.05000000E+002   9.92159623E-001   7.18048716E-001   9.92022417E-001
   2.10000000E+002   9.92917187E-001   7.17986229E-001   9.92795408E-001
   2.15000000E+002   9.93511226E-001   7.17931904E-001   9.93402921E-001
   2.20000000E+002   9.94356041E-001   7.17884534E-001   9.94259310E-001
   2.25000000E+002   9.94792822E-001   7.17843113E-001   9.94706379E-001
   2.30000000E+002   9.95326832E-001   7.17806793E-001   9.95249343E-001
   2.35000000E+002   9.95723590E-001   7.17774860E-001   9.95654001E-001
   2.40000000E+002   9.96150634E-001   7.17746714E-001   9.96087982E-001
   2.45000000E+002   9.96642263E-001   7.17721842E-001   9.96585702E-001
