# ./jetvheto -in n3lo-fixed-order/H125-LHC13-R04-mb-0-mt-1725-xmur050-xmuf100-log.fxd -xQ 0.25 -out benchmarks-n3lo-smallR/H125-LHC13-R04-mb-0-mt-1725-xmur050-xmuf100-xQ025-N3LO+NNLLa.R0-0.5.res -scheme a -order 2 -ptmax 500.01 -small-r -fixed_order 3 -loop-mass t -R0 0.5
# process = H    
# collider = pp   
# rts =  13000.000
# M   =    125.000
# muR =     62.500
# muF =    125.000
# Q   =     31.250
# p   =      5.000
# include_c1_squared =   F
# loop_mass  = t   
# alphas(MZ) =    0.11800
# alphas(M) =    0.11264
# alphas(muR) =    0.12516
# Rjet =      0.400
# order = NNLL
# pdf name and set = PDF4LHC15_nnlo_mc.LHgrid,    0
# matching scheme = a
# total cross sections [nb] at LO, NLOdiff, NNLOdiff, N3LOdiff =     0.016868    0.020591    0.008553    0.000949
#----------------------------------------------------------------------
# the lines that follow give the jet-veto efficiencies as a function of pt
#         pt            matched eff      resummed eff     fixed-order eff
   2.00000000E+001   4.57113876E-001   5.03061866E-001   4.55384304E-001
   2.50000000E+001   5.41703019E-001   5.71996597E-001   5.40568007E-001
   3.00000000E+001   6.15330249E-001   6.12555173E-001   6.15061825E-001
   3.50000000E+001   6.72037440E-001   6.34629864E-001   6.71924624E-001
   4.00000000E+001   7.17839468E-001   6.46226094E-001   7.17776886E-001
   4.50000000E+001   7.54772208E-001   6.52354659E-001   7.54726893E-001
   5.00000000E+001   7.86283898E-001   6.55692993E-001   7.86256196E-001
   5.50000000E+001   8.13375266E-001   6.57584486E-001   8.13360155E-001
   6.00000000E+001   8.35992970E-001   6.58700326E-001   8.35982829E-001
   6.50000000E+001   8.56543892E-001   6.59383982E-001   8.56539019E-001
   7.00000000E+001   8.73639605E-001   6.59817445E-001   8.73636697E-001
   7.50000000E+001   8.87484485E-001   6.60100807E-001   8.87481736E-001
   8.00000000E+001   8.99659117E-001   6.60291148E-001   8.99656735E-001
   8.50000000E+001   9.10856479E-001   6.60422130E-001   9.10854774E-001
   9.00000000E+001   9.20179532E-001   6.60514228E-001   9.20178063E-001
   9.50000000E+001   9.28903719E-001   6.60580245E-001   9.28902629E-001
   1.00000000E+002   9.35939343E-001   6.60628396E-001   9.35938367E-001
   1.05000000E+002   9.42270099E-001   6.60664070E-001   9.42269256E-001
   1.10000000E+002   9.48016210E-001   6.60690878E-001   9.48015510E-001
   1.15000000E+002   9.53152870E-001   6.60711286E-001   9.53152280E-001
   1.20000000E+002   9.57546012E-001   6.60727007E-001   9.57545500E-001
   1.25000000E+002   9.61247891E-001   6.60739249E-001   9.61247428E-001
   1.30000000E+002   9.65204089E-001   6.60748878E-001   9.65203712E-001
   1.35000000E+002   9.68596790E-001   6.60756522E-001   9.68596472E-001
   1.40000000E+002   9.71343504E-001   6.60762642E-001   9.71343224E-001
   1.45000000E+002   9.74026603E-001   6.60767581E-001   9.74026360E-001
   1.50000000E+002   9.76227117E-001   6.60771596E-001   9.76226901E-001
   1.55000000E+002   9.78830820E-001   6.60774884E-001   9.78830644E-001
   1.60000000E+002   9.80275938E-001   6.60777592E-001   9.80275773E-001
   1.65000000E+002   9.82037489E-001   6.60779838E-001   9.82037344E-001
   1.70000000E+002   9.83525698E-001   6.60781710E-001   9.83525568E-001
   1.75000000E+002   9.85048678E-001   6.60783279E-001   9.85048566E-001
   1.80000000E+002   9.86436886E-001   6.60784600E-001   9.86436787E-001
   1.85000000E+002   9.87677191E-001   6.60785719E-001   9.87677104E-001
   1.90000000E+002   9.88366147E-001   6.60786670E-001   9.88366066E-001
   1.95000000E+002   9.89514543E-001   6.60787482E-001   9.89514472E-001
   2.00000000E+002   9.90450615E-001   6.60788179E-001   9.90450552E-001
   2.05000000E+002   9.91209882E-001   6.60788778E-001   9.91209825E-001
   2.10000000E+002   9.91884423E-001   6.60789296E-001   9.91884371E-001
   2.15000000E+002   9.92737262E-001   6.60789744E-001   9.92737216E-001
   2.20000000E+002   9.93251532E-001   6.60790135E-001   9.93251490E-001
   2.25000000E+002   9.93856360E-001   6.60790475E-001   9.93856322E-001
   2.30000000E+002   9.94422798E-001   6.60790773E-001   9.94422764E-001
   2.35000000E+002   9.94941354E-001   6.60791035E-001   9.94941324E-001
   2.40000000E+002   9.95215935E-001   6.60791265E-001   9.95215907E-001
   2.45000000E+002   9.95711415E-001   6.60791468E-001   9.95711389E-001
