# ./jetvheto -in n3lo-fixed-order/H125-LHC13-R04-mb-475-mt-1725-xmur100-xmuf100-log.fxd -xQ 0.5 -out benchmarks-n3lo-smallR/H125-LHC13-R04-mb-475-mt-1725-xmur100-xmuf100-xQ050-N3LO+NNLLa.R0-1.5.res -scheme a -order 2 -ptmax 500.01 -fixed_order 3 -small-r -loop-mass t+b -R0 1.5
# process = H    
# collider = pp   
# rts =  13000.000
# M   =    125.000
# muR =    125.000
# muF =    125.000
# Q   =     62.500
# p   =      5.000
# include_c1_squared =   F
# loop_mass  = t+b 
# alphas(MZ) =    0.11800
# alphas(M) =    0.11264
# alphas(muR) =    0.11264
# Rjet =      0.400
# order = NNLL
# pdf name and set = PDF4LHC15_nnlo_mc.LHgrid,    0
# matching scheme = a
# total cross sections [nb] at LO, NLOdiff, NNLOdiff, N3LOdiff =     0.012292    0.016994    0.010146    0.003834
#----------------------------------------------------------------------
# the lines that follow give the jet-veto efficiencies as a function of pt
#         pt            matched eff      resummed eff     fixed-order eff
   2.00000000E+001   4.52828612E-001   5.07250579E-001   4.51319368E-001
   2.50000000E+001   5.39349042E-001   5.85456621E-001   5.36825698E-001
   3.00000000E+001   6.11960703E-001   6.40769511E-001   6.08858675E-001
   3.50000000E+001   6.68887464E-001   6.79415002E-001   6.64947540E-001
   4.00000000E+001   7.14691026E-001   7.05906643E-001   7.10355778E-001
   4.50000000E+001   7.51759017E-001   7.23597136E-001   7.47456588E-001
   5.00000000E+001   7.82919872E-001   7.35042258E-001   7.78978104E-001
   5.50000000E+001   8.09344986E-001   7.42203990E-001   8.05930820E-001
   6.00000000E+001   8.31563713E-001   7.46555320E-001   8.28717070E-001
   6.50000000E+001   8.51370679E-001   7.49145229E-001   8.49064316E-001
   7.00000000E+001   8.68105180E-001   7.50672982E-001   8.66268025E-001
   7.50000000E+001   8.81980688E-001   7.51577035E-001   8.80530885E-001
   8.00000000E+001   8.94256094E-001   7.52119408E-001   8.93116387E-001
   8.50000000E+001   9.05358184E-001   7.52451810E-001   9.04462211E-001
   9.00000000E+001   9.14900381E-001   7.52660951E-001   9.14193494E-001
   9.50000000E+001   9.23642910E-001   7.52796351E-001   9.23082480E-001
   1.00000000E+002   9.30958224E-001   7.52886574E-001   9.30511231E-001
   1.05000000E+002   9.37559744E-001   7.52948384E-001   9.37200842E-001
   1.10000000E+002   9.43488591E-001   7.52991837E-001   9.43198469E-001
   1.15000000E+002   9.48823800E-001   7.53023112E-001   9.48587632E-001
   1.20000000E+002   9.53431405E-001   7.53046101E-001   9.53237889E-001
   1.25000000E+002   9.57474883E-001   7.53063321E-001   9.57315271E-001
   1.30000000E+002   9.61499305E-001   7.53076437E-001   9.61366818E-001
   1.35000000E+002   9.65047265E-001   7.53086575E-001   9.64936627E-001
   1.40000000E+002   9.68022087E-001   7.53094516E-001   9.67929190E-001
   1.45000000E+002   9.70877883E-001   7.53100808E-001   9.70799436E-001
   1.50000000E+002   9.73298487E-001   7.53105847E-001   9.73231918E-001
   1.55000000E+002   9.75901817E-001   7.53109921E-001   9.75845039E-001
   1.60000000E+002   9.77664286E-001   7.53113242E-001   9.77615642E-001
   1.65000000E+002   9.79565547E-001   7.53115971E-001   9.79523686E-001
   1.70000000E+002   9.81226969E-001   7.53118229E-001   9.81190793E-001
   1.75000000E+002   9.82844849E-001   7.53120110E-001   9.82813463E-001
   1.80000000E+002   9.84320047E-001   7.53121686E-001   9.84292712E-001
   1.85000000E+002   9.85653482E-001   7.53123014E-001   9.85629591E-001
   1.90000000E+002   9.86586985E-001   7.53124138E-001   9.86566035E-001
   1.95000000E+002   9.87788047E-001   7.53125096E-001   9.87769612E-001
   2.00000000E+002   9.88807548E-001   7.53125914E-001   9.88791277E-001
   2.05000000E+002   9.89681808E-001   7.53126617E-001   9.89667405E-001
   2.10000000E+002   9.90471649E-001   7.53127222E-001   9.90458863E-001
   2.15000000E+002   9.91334686E-001   7.53127746E-001   9.91323305E-001
   2.20000000E+002   9.91965749E-001   7.53128201E-001   9.91955592E-001
   2.25000000E+002   9.92628670E-001   7.53128598E-001   9.92619584E-001
   2.30000000E+002   9.93244081E-001   7.53128944E-001   9.93235932E-001
   2.35000000E+002   9.93812128E-001   7.53129248E-001   9.93804803E-001
   2.40000000E+002   9.94199337E-001   7.53129515E-001   9.94192740E-001
   2.45000000E+002   9.94719566E-001   7.53129751E-001   9.94713610E-001
