# ./jetvheto -in n3lo-fixed-order/H125-LHC13-R04-mb-0-mt-1725-xmur200-xmuf200-log.fxd -xQ 0.5 -out benchmarks-n3lo-smallR/H125-LHC13-R04-mb-0-mt-1725-xmur200-xmuf200-xQ050-N3LO+NNLLa.R0-1.0.res -scheme a -order 2 -ptmax 500.01 -small-r -fixed_order 3 -loop-mass t -R0 1.0
# process = H    
# collider = pp   
# rts =  13000.000
# M   =    125.000
# muR =    250.000
# muF =    250.000
# Q   =     62.500
# p   =      5.000
# include_c1_squared =   F
# loop_mass  = t   
# alphas(MZ) =    0.11800
# alphas(M) =    0.11264
# alphas(muR) =    0.10244
# Rjet =      0.400
# order = NNLL
# pdf name and set = PDF4LHC15_nnlo_mc.LHgrid,    0
# matching scheme = a
# total cross sections [nb] at LO, NLOdiff, NNLOdiff, N3LOdiff =     0.011967    0.015254    0.010464    0.005358
#----------------------------------------------------------------------
# the lines that follow give the jet-veto efficiencies as a function of pt
#         pt            matched eff      resummed eff     fixed-order eff
   2.00000000E+001   4.81138249E-001   5.51135997E-001   4.91781928E-001
   2.50000000E+001   5.68882925E-001   6.36446853E-001   5.76423081E-001
   3.00000000E+001   6.36728087E-001   6.96791987E-001   6.40705832E-001
   3.50000000E+001   6.91498323E-001   7.38955619E-001   6.92785607E-001
   4.00000000E+001   7.35578036E-001   7.67864724E-001   7.35034033E-001
   4.50000000E+001   7.70684118E-001   7.87171489E-001   7.69064211E-001
   5.00000000E+001   8.00862321E-001   7.99661676E-001   7.98813273E-001
   5.50000000E+001   8.25100368E-001   8.07478212E-001   8.22995908E-001
   6.00000000E+001   8.45508220E-001   8.12228834E-001   8.43576469E-001
   6.50000000E+001   8.62749770E-001   8.15057235E-001   8.61086535E-001
   7.00000000E+001   8.78294559E-001   8.16726240E-001   8.76917626E-001
   7.50000000E+001   8.91119133E-001   8.17714230E-001   8.90004390E-001
   8.00000000E+001   9.02301291E-001   8.18307126E-001   9.01409534E-001
   8.50000000E+001   9.12258963E-001   8.18670636E-001   9.11549302E-001
   9.00000000E+001   9.20798556E-001   8.18899445E-001   9.20233926E-001
   9.50000000E+001   9.28779430E-001   8.19047610E-001   9.28329031E-001
   1.00000000E+002   9.35531007E-001   8.19146350E-001   9.35170266E-001
   1.05000000E+002   9.41465583E-001   8.19214015E-001   9.41175023E-001
   1.10000000E+002   9.46639972E-001   8.19261598E-001   9.46404546E-001
   1.15000000E+002   9.51533669E-001   8.19295853E-001   9.51341696E-001
   1.20000000E+002   9.55984680E-001   8.19321040E-001   9.55827138E-001
   1.25000000E+002   9.59687929E-001   8.19339909E-001   9.59557869E-001
   1.30000000E+002   9.63214105E-001   8.19354283E-001   9.63106069E-001
   1.35000000E+002   9.66247189E-001   8.19365396E-001   9.66156922E-001
   1.40000000E+002   9.69275324E-001   8.19374101E-001   9.69199474E-001
   1.45000000E+002   9.71696603E-001   8.19380999E-001   9.71632540E-001
   1.50000000E+002   9.74067171E-001   8.19386524E-001   9.74012781E-001
   1.55000000E+002   9.76183713E-001   8.19390991E-001   9.76137315E-001
   1.60000000E+002   9.78042826E-001   8.19394632E-001   9.78003062E-001
   1.65000000E+002   9.79668677E-001   8.19397625E-001   9.79634451E-001
   1.70000000E+002   9.81381721E-001   8.19400102E-001   9.81352136E-001
   1.75000000E+002   9.82779699E-001   8.19402164E-001   9.82754028E-001
   1.80000000E+002   9.84285586E-001   8.19403893E-001   9.84263223E-001
   1.85000000E+002   9.85371635E-001   8.19405349E-001   9.85352087E-001
   1.90000000E+002   9.86485261E-001   8.19406583E-001   9.86468116E-001
   1.95000000E+002   9.87471837E-001   8.19407633E-001   9.87456750E-001
   2.00000000E+002   9.88545507E-001   8.19408531E-001   9.88532189E-001
   2.05000000E+002   9.89295916E-001   8.19409301E-001   9.89284125E-001
   2.10000000E+002   9.90013193E-001   8.19409966E-001   9.90002726E-001
   2.15000000E+002   9.90786215E-001   8.19410540E-001   9.90776896E-001
   2.20000000E+002   9.91494060E-001   8.19411039E-001   9.91485742E-001
   2.25000000E+002   9.92055033E-001   8.19411474E-001   9.92047592E-001
   2.30000000E+002   9.92586436E-001   8.19411854E-001   9.92579762E-001
   2.35000000E+002   9.93138792E-001   8.19412188E-001   9.93132792E-001
   2.40000000E+002   9.93622750E-001   8.19412481E-001   9.93617346E-001
   2.45000000E+002   9.94090779E-001   8.19412739E-001   9.94085900E-001
