# ./jetvheto -in n3lo-fixed-order/H125-LHC13-R04-mb-0-mt-1725-xmur050-xmuf025-log.fxd -xQ 0.5 -out benchmarks-n3lo-smallR/H125-LHC13-R04-mb-0-mt-1725-xmur050-xmuf025-xQ050-N3LO+NNLLb.R0-1.0.res -scheme b -order 2 -ptmax 500.01 -small-r -fixed_order 3 -loop-mass t -R0 1.0
# process = H    
# collider = pp   
# rts =  13000.000
# M   =    125.000
# muR =     62.500
# muF =     31.250
# Q   =     62.500
# p   =      5.000
# include_c1_squared =   F
# loop_mass  = t   
# alphas(MZ) =    0.11800
# alphas(M) =    0.11264
# alphas(muR) =    0.12516
# Rjet =      0.400
# order = NNLL
# pdf name and set = PDF4LHC15_nnlo_mc.LHgrid,    0
# matching scheme = b
# total cross sections [nb] at LO, NLOdiff, NNLOdiff, N3LOdiff =     0.014513    0.020714    0.009723    0.001827
#----------------------------------------------------------------------
# the lines that follow give the jet-veto efficiencies as a function of pt
#         pt            matched eff      resummed eff     fixed-order eff
   2.00000000E+001   4.47814082E-001   4.86055138E-001   4.32654271E-001
   2.50000000E+001   5.37878427E-001   5.67021147E-001   5.25438435E-001
   3.00000000E+001   6.08994745E-001   6.25003838E-001   5.98274849E-001
   3.50000000E+001   6.65925125E-001   6.66004461E-001   6.56673365E-001
   4.00000000E+001   7.12657898E-001   6.94525678E-001   7.04872664E-001
   4.50000000E+001   7.51613342E-001   7.13908037E-001   7.45219237E-001
   5.00000000E+001   7.83983500E-001   7.26715807E-001   7.78821557E-001
   5.50000000E+001   8.12077267E-001   7.34947373E-001   8.08005902E-001
   6.00000000E+001   8.35307630E-001   7.40118759E-001   8.32119932E-001
   6.50000000E+001   8.54027930E-001   7.43323779E-001   8.51541323E-001
   7.00000000E+001   8.71528849E-001   7.45305822E-001   8.69611350E-001
   7.50000000E+001   8.86490594E-001   7.46542441E-001   8.85012693E-001
   8.00000000E+001   8.99010184E-001   7.47327730E-001   8.97864534E-001
   8.50000000E+001   9.10477483E-001   7.47837973E-001   9.09587011E-001
   9.00000000E+001   9.20579032E-001   7.48178010E-001   9.19882297E-001
   9.50000000E+001   9.28144758E-001   7.48410474E-001   9.27593920E-001
   1.00000000E+002   9.36415796E-001   7.48573309E-001   9.35978860E-001
   1.05000000E+002   9.42807843E-001   7.48689951E-001   9.42457594E-001
   1.10000000E+002   9.49281195E-001   7.48775210E-001   9.48998949E-001
   1.15000000E+002   9.54874205E-001   7.48838666E-001   9.54644871E-001
   1.20000000E+002   9.59316495E-001   7.48886659E-001   9.59128590E-001
   1.25000000E+002   9.63140815E-001   7.48923482E-001   9.62985835E-001
   1.30000000E+002   9.67072022E-001   7.48952097E-001   9.66943495E-001
   1.35000000E+002   9.70325127E-001   7.48974591E-001   9.70217812E-001
   1.40000000E+002   9.73396778E-001   7.48992458E-001   9.73306693E-001
   1.45000000E+002   9.76213516E-001   7.49006783E-001   9.76137473E-001
   1.50000000E+002   9.78612089E-001   7.49018367E-001   9.78547560E-001
   1.55000000E+002   9.80812766E-001   7.49027808E-001   9.80757743E-001
   1.60000000E+002   9.83118098E-001   7.49035558E-001   9.83070991E-001
   1.65000000E+002   9.84824550E-001   7.49041963E-001   9.84784004E-001
   1.70000000E+002   9.86233882E-001   7.49047289E-001   9.86198834E-001
   1.75000000E+002   9.87925086E-001   7.49051744E-001   9.87894697E-001
   1.80000000E+002   9.89079286E-001   7.49055489E-001   9.89052814E-001
   1.85000000E+002   9.90397087E-001   7.49058655E-001   9.90373963E-001
   1.90000000E+002   9.91437882E-001   7.49061342E-001   9.91417603E-001
   1.95000000E+002   9.92553473E-001   7.49063635E-001   9.92535637E-001
   2.00000000E+002   9.93339250E-001   7.49065599E-001   9.93323508E-001
   2.05000000E+002   9.94116423E-001   7.49067287E-001   9.94102489E-001
   2.10000000E+002   9.94825102E-001   7.49068745E-001   9.94812733E-001
   2.15000000E+002   9.95604471E-001   7.49070007E-001   9.95593468E-001
   2.20000000E+002   9.96147454E-001   7.49071105E-001   9.96137634E-001
   2.25000000E+002   9.96794021E-001   7.49072062E-001   9.96785239E-001
   2.30000000E+002   9.97250212E-001   7.49072900E-001   9.97242338E-001
   2.35000000E+002   9.97572678E-001   7.49073634E-001   9.97565601E-001
   2.40000000E+002   9.98047960E-001   7.49074281E-001   9.98041587E-001
   2.45000000E+002   9.98448322E-001   7.49074851E-001   9.98442572E-001
