# ./jetvheto -in n3lo-fixed-order/H125-LHC13-R04-mb-475-mt-1725-xmur050-xmuf050-log.fxd -xQ 0.5 -out benchmarks-n3lo-smallR/H125-LHC13-R04-mb-475-mt-1725-xmur050-xmuf050-xQ050-NNLO+NNLLb.R0-2.0.res -scheme b -order 2 -ptmax 500.01 -fixed_order 2 -small-r -loop-mass t+b -R0 2.0
# process = H    
# collider = pp   
# rts =  13000.000
# M   =    125.000
# muR =     62.500
# muF =     62.500
# Q   =     62.500
# p   =      5.000
# include_c1_squared =   F
# loop_mass  = t+b 
# alphas(MZ) =    0.11800
# alphas(M) =    0.11264
# alphas(muR) =    0.12516
# Rjet =      0.400
# order = NNLL
# pdf name and set = PDF4LHC15_nnlo_mc.LHgrid,    0
# matching scheme = b
# total cross sections [nb] at LO, NLOdiff, NNLOdiff, N3LOdiff =     0.014147    0.020254    0.008998    0.001413
#----------------------------------------------------------------------
# the lines that follow give the jet-veto efficiencies as a function of pt
#         pt            matched eff      resummed eff     fixed-order eff
   2.00000000E+001   4.13738760E-001   4.91401473E-001   3.08135668E-001
   2.50000000E+001   4.94244848E-001   5.62160197E-001   4.16958718E-001
   3.00000000E+001   5.60324963E-001   6.11923617E-001   5.02459671E-001
   3.50000000E+001   6.15110392E-001   6.46505316E-001   5.71196452E-001
   4.00000000E+001   6.60859426E-001   6.70078425E-001   6.27360842E-001
   4.50000000E+001   6.99854684E-001   6.85702035E-001   6.74295094E-001
   5.00000000E+001   7.33253822E-001   6.95706449E-001   7.13816378E-001
   5.50000000E+001   7.62033468E-001   7.01883483E-001   7.47307378E-001
   6.00000000E+001   7.87143688E-001   7.05573344E-001   7.76012324E-001
   6.50000000E+001   8.09163037E-001   7.07721385E-001   8.00751743E-001
   7.00000000E+001   8.28712926E-001   7.08953296E-001   8.22342000E-001
   7.50000000E+001   8.45872138E-001   7.09657498E-001   8.41024239E-001
   8.00000000E+001   8.61194680E-001   7.10062991E-001   8.57481768E-001
   8.50000000E+001   8.74893911E-001   7.10300073E-001   8.72028209E-001
   9.00000000E+001   8.87018366E-001   7.10441763E-001   8.84788465E-001
   9.50000000E+001   8.97780536E-001   7.10528654E-001   8.96030076E-001
   1.00000000E+002   9.07474239E-001   7.10583437E-001   9.06088095E-001
   1.05000000E+002   9.16130047E-001   7.10618969E-001   9.15022873E-001
   1.10000000E+002   9.23859117E-001   7.10642667E-001   9.22967578E-001
   1.15000000E+002   9.30847194E-001   7.10658900E-001   9.30123525E-001
   1.20000000E+002   9.37116992E-001   7.10670304E-001   9.36525194E-001
   1.25000000E+002   9.42829417E-001   7.10678502E-001   9.42341979E-001
   1.30000000E+002   9.47916848E-001   7.10684523E-001   9.47512677E-001
   1.35000000E+002   9.52529944E-001   7.10689029E-001   9.52192707E-001
   1.40000000E+002   9.56736608E-001   7.10692460E-001   9.56453519E-001
   1.45000000E+002   9.60530228E-001   7.10695114E-001   9.60291255E-001
   1.50000000E+002   9.64008769E-001   7.10697195E-001   9.63805964E-001
   1.55000000E+002   9.67159789E-001   7.10698847E-001   9.66986816E-001
   1.60000000E+002   9.70020602E-001   7.10700173E-001   9.69872376E-001
   1.65000000E+002   9.72607506E-001   7.10701248E-001   9.72479918E-001
   1.70000000E+002   9.74967207E-001   7.10702128E-001   9.74856924E-001
   1.75000000E+002   9.77153900E-001   7.10702853E-001   9.77058190E-001
   1.80000000E+002   9.79109487E-001   7.10703456E-001   9.79026110E-001
   1.85000000E+002   9.80927917E-001   7.10703960E-001   9.80855018E-001
   1.90000000E+002   9.82585036E-001   7.10704384E-001   9.82521082E-001
   1.95000000E+002   9.84094055E-001   7.10704743E-001   9.84037765E-001
   2.00000000E+002   9.85470414E-001   7.10705049E-001   9.85420716E-001
   2.05000000E+002   9.86741228E-001   7.10705310E-001   9.86697220E-001
   2.10000000E+002   9.87875901E-001   7.10705535E-001   9.87836822E-001
   2.15000000E+002   9.88954343E-001   7.10705728E-001   9.88919546E-001
   2.20000000E+002   9.89944139E-001   7.10705896E-001   9.89913075E-001
   2.25000000E+002   9.90814456E-001   7.10706042E-001   9.90786656E-001
   2.30000000E+002   9.91665296E-001   7.10706169E-001   9.91640359E-001
   2.35000000E+002   9.92407167E-001   7.10706280E-001   9.92384747E-001
   2.40000000E+002   9.93102770E-001   7.10706378E-001   9.93082569E-001
   2.45000000E+002   9.93730111E-001   7.10706464E-001   9.93711871E-001
