# ./jetvheto -in n3lo-fixed-order/H125-LHC13-R04-mb-475-mt-1725-xmur050-xmuf025-log.fxd -xQ 0.25 -out benchmarks-n3lo-smallR/H125-LHC13-R04-mb-475-mt-1725-xmur050-xmuf025-xQ025-NNLO+NNLLa.res -scheme a -order 2 -ptmax 500.01 -fixed_order 2 -loop-mass t+b
# process = H    
# collider = pp   
# rts =  13000.000
# M   =    125.000
# muR =     62.500
# muF =     31.250
# Q   =     31.250
# p   =      5.000
# include_c1_squared =   F
# loop_mass  = t+b 
# alphas(MZ) =    0.11800
# alphas(M) =    0.11264
# alphas(muR) =    0.12516
# Rjet =      0.400
# order = NNLL
# pdf name and set = PDF4LHC15_nnlo_mc.LHgrid,    0
# matching scheme = a
# total cross sections [nb] at LO, NLOdiff, NNLOdiff, N3LOdiff =     0.012926    0.020318    0.009723    0.001827
#----------------------------------------------------------------------
# the lines that follow give the jet-veto efficiencies as a function of pt
#         pt            matched eff      resummed eff     fixed-order eff
   2.00000000E+001   4.36515919E-001   4.61507387E-001   4.49376256E-001
   2.50000000E+001   5.24883728E-001   5.30003528E-001   5.34025121E-001
   3.00000000E+001   5.94869892E-001   5.70867920E-001   6.00744622E-001
   3.50000000E+001   6.51359627E-001   5.93324378E-001   6.55033276E-001
   4.00000000E+001   6.97416785E-001   6.05191897E-001   6.99725943E-001
   4.50000000E+001   7.35616406E-001   6.11485872E-001   7.37098941E-001
   5.00000000E+001   7.67705345E-001   6.14921180E-001   7.68680039E-001
   5.50000000E+001   7.94844747E-001   6.16869859E-001   7.95502115E-001
   6.00000000E+001   8.18118469E-001   6.18020210E-001   8.18572628E-001
   6.50000000E+001   8.38221769E-001   6.18725299E-001   8.38542465E-001
   7.00000000E+001   8.55812491E-001   6.19172467E-001   8.56043590E-001
   7.50000000E+001   8.70952819E-001   6.19464837E-001   8.71122230E-001
   8.00000000E+001   8.84397789E-001   6.19661250E-001   8.84524140E-001
   8.50000000E+001   8.96281025E-001   6.19796420E-001   8.96376665E-001
   9.00000000E+001   9.06751479E-001   6.19891467E-001   9.06824852E-001
   9.50000000E+001   9.15936273E-001   6.19959602E-001   9.15993237E-001
   1.00000000E+002   9.24127831E-001   6.20009298E-001   9.24172569E-001
   1.05000000E+002   9.31499274E-001   6.20046118E-001   9.31534780E-001
   1.10000000E+002   9.38048451E-001   6.20073787E-001   9.38076899E-001
   1.15000000E+002   9.43964379E-001   6.20094851E-001   9.43987376E-001
   1.20000000E+002   9.49303123E-001   6.20111077E-001   9.49321865E-001
   1.25000000E+002   9.54061704E-001   6.20123713E-001   9.54077090E-001
   1.30000000E+002   9.58375278E-001   6.20133652E-001   9.58388001E-001
   1.35000000E+002   9.62257294E-001   6.20141542E-001   9.62267886E-001
   1.40000000E+002   9.65755467E-001   6.20147859E-001   9.65764337E-001
   1.45000000E+002   9.68988553E-001   6.20152957E-001   9.68996025E-001
   1.50000000E+002   9.71890546E-001   6.20157101E-001   9.71896874E-001
   1.55000000E+002   9.74529107E-001   6.20160494E-001   9.74534494E-001
   1.60000000E+002   9.76945530E-001   6.20163290E-001   9.76950138E-001
   1.65000000E+002   9.79132305E-001   6.20165608E-001   9.79136265E-001
   1.70000000E+002   9.81113661E-001   6.20167540E-001   9.81117078E-001
   1.75000000E+002   9.82917329E-001   6.20169159E-001   9.82920289E-001
   1.80000000E+002   9.84554729E-001   6.20170524E-001   9.84557304E-001
   1.85000000E+002   9.86040816E-001   6.20171678E-001   9.86043063E-001
   1.90000000E+002   9.87421062E-001   6.20172660E-001   9.87423030E-001
   1.95000000E+002   9.88685380E-001   6.20173498E-001   9.88687110E-001
   2.00000000E+002   9.89833535E-001   6.20174217E-001   9.89835060E-001
   2.05000000E+002   9.90895093E-001   6.20174836E-001   9.90896442E-001
   2.10000000E+002   9.91867184E-001   6.20175370E-001   9.91868380E-001
   2.15000000E+002   9.92724775E-001   6.20175833E-001   9.92725838E-001
   2.20000000E+002   9.93535988E-001   6.20176236E-001   9.93536937E-001
   2.25000000E+002   9.94273205E-001   6.20176588E-001   9.94274053E-001
   2.30000000E+002   9.94936754E-001   6.20176895E-001   9.94937514E-001
   2.35000000E+002   9.95556534E-001   6.20177165E-001   9.95557216E-001
   2.40000000E+002   9.96106823E-001   6.20177403E-001   9.96107437E-001
   2.45000000E+002   9.96609722E-001   6.20177613E-001   9.96610275E-001
