# ./jetvheto -in n3lo-fixed-order/H125-LHC13-R04-mb-475-mt-1725-xmur050-xmuf050-log.fxd -xQ 0.333 -out benchmarks-n3lo-smallR/H125-LHC13-R04-mb-475-mt-1725-xmur050-xmuf050-xQ033-N3LO+NNLLa.R0-1.5.res -scheme a -order 2 -ptmax 500.01 -fixed_order 3 -small-r -loop-mass t+b -R0 1.5
# process = H    
# collider = pp   
# rts =  13000.000
# M   =    125.000
# muR =     62.500
# muF =     62.500
# Q   =     41.625
# p   =      5.000
# include_c1_squared =   F
# loop_mass  = t+b 
# alphas(MZ) =    0.11800
# alphas(M) =    0.11264
# alphas(muR) =    0.12516
# Rjet =      0.400
# order = NNLL
# pdf name and set = PDF4LHC15_nnlo_mc.LHgrid,    0
# matching scheme = a
# total cross sections [nb] at LO, NLOdiff, NNLOdiff, N3LOdiff =     0.014147    0.020254    0.008998    0.001413
#----------------------------------------------------------------------
# the lines that follow give the jet-veto efficiencies as a function of pt
#         pt            matched eff      resummed eff     fixed-order eff
   2.00000000E+001   4.42608808E-001   4.69494394E-001   4.41074844E-001
   2.50000000E+001   5.28187766E-001   5.41104578E-001   5.26291803E-001
   3.00000000E+001   6.00913041E-001   5.89621796E-001   5.99588615E-001
   3.50000000E+001   6.59172787E-001   6.21104969E-001   6.58104134E-001
   4.00000000E+001   7.04629710E-001   6.40681611E-001   7.03699261E-001
   4.50000000E+001   7.44586556E-001   6.52493658E-001   7.43908515E-001
   5.00000000E+001   7.76777042E-001   6.59544765E-001   7.76267730E-001
   5.50000000E+001   8.04804024E-001   6.63783659E-001   8.04438345E-001
   6.00000000E+001   8.27936541E-001   6.66379563E-001   8.27667847E-001
   6.50000000E+001   8.49264758E-001   6.68008209E-001   8.49073502E-001
   7.00000000E+001   8.65911659E-001   6.69056702E-001   8.65767048E-001
   7.50000000E+001   8.80782804E-001   6.69749016E-001   8.80674091E-001
   8.00000000E+001   8.94220059E-001   6.70217188E-001   8.94138038E-001
   8.50000000E+001   9.06169357E-001   6.70540843E-001   9.06106835E-001
   9.00000000E+001   9.16659227E-001   6.70769146E-001   9.16611008E-001
   9.50000000E+001   9.25116610E-001   6.70933173E-001   9.25078477E-001
   1.00000000E+002   9.33131955E-001   6.71053008E-001   9.33101787E-001
   1.05000000E+002   9.39609953E-001   6.71141898E-001   9.39585604E-001
   1.10000000E+002   9.45514935E-001   6.71208758E-001   9.45495190E-001
   1.15000000E+002   9.51110153E-001   6.71259692E-001   9.51094105E-001
   1.20000000E+002   9.56120817E-001   6.71298947E-001   9.56107678E-001
   1.25000000E+002   9.60307178E-001   6.71329529E-001   9.60296277E-001
   1.30000000E+002   9.63947127E-001   6.71353591E-001   9.63938023E-001
   1.35000000E+002   9.67554499E-001   6.71372697E-001   9.67546891E-001
   1.40000000E+002   9.70836644E-001   6.71387997E-001   9.70830250E-001
   1.45000000E+002   9.73670057E-001   6.71400347E-001   9.73664645E-001
   1.50000000E+002   9.75892452E-001   6.71410389E-001   9.75887820E-001
   1.55000000E+002   9.78415477E-001   6.71418610E-001   9.78411529E-001
   1.60000000E+002   9.80671477E-001   6.71425385E-001   9.80668095E-001
   1.65000000E+002   9.82077084E-001   6.71431002E-001   9.82074144E-001
   1.70000000E+002   9.83852583E-001   6.71435684E-001   9.83850040E-001
   1.75000000E+002   9.85522843E-001   6.71439609E-001   9.85520635E-001
   1.80000000E+002   9.86799276E-001   6.71442916E-001   9.86797346E-001
   1.85000000E+002   9.87977085E-001   6.71445715E-001   9.87975392E-001
   1.90000000E+002   9.89173824E-001   6.71448095E-001   9.89172337E-001
   1.95000000E+002   9.90276121E-001   6.71450127E-001   9.90274812E-001
   2.00000000E+002   9.91247520E-001   6.71451869E-001   9.91246363E-001
   2.05000000E+002   9.92023445E-001   6.71453369E-001   9.92022417E-001
   2.10000000E+002   9.92796321E-001   6.71454664E-001   9.92795408E-001
   2.15000000E+002   9.93403737E-001   6.71455787E-001   9.93402921E-001
   2.20000000E+002   9.94260037E-001   6.71456764E-001   9.94259310E-001
   2.25000000E+002   9.94707031E-001   6.71457616E-001   9.94706379E-001
   2.30000000E+002   9.95249929E-001   6.71458361E-001   9.95249343E-001
   2.35000000E+002   9.95654529E-001   6.71459016E-001   9.95654001E-001
   2.40000000E+002   9.96088458E-001   6.71459592E-001   9.96087982E-001
   2.45000000E+002   9.96586132E-001   6.71460100E-001   9.96585702E-001
