# ./jetvheto -in n3lo-fixed-order/H125-LHC13-R04-mb-0-mt-1725-xmur025-xmuf025-log.fxd -xQ 0.5 -out benchmarks-n3lo-smallR/H125-LHC13-R04-mb-0-mt-1725-xmur025-xmuf025-xQ050-N3LO+NNLLb.R0-2.0.res -scheme b -order 2 -ptmax 500.01 -small-r -fixed_order 3 -loop-mass t -R0 2.0
# process = H    
# collider = pp   
# rts =  13000.000
# M   =    125.000
# muR =     31.250
# muF =     31.250
# Q   =     62.500
# p   =      5.000
# include_c1_squared =   F
# loop_mass  = t   
# alphas(MZ) =    0.11800
# alphas(M) =    0.11264
# alphas(muR) =    0.14091
# Rjet =      0.400
# order = NNLL
# pdf name and set = PDF4LHC15_nnlo_mc.LHgrid,    0
# matching scheme = b
# total cross sections [nb] at LO, NLOdiff, NNLOdiff, N3LOdiff =     0.018140    0.025356    0.006043   -0.002471
#----------------------------------------------------------------------
# the lines that follow give the jet-veto efficiencies as a function of pt
#         pt            matched eff      resummed eff     fixed-order eff
   2.00000000E+001   5.12837692E-001   5.16122794E-001   4.87197444E-001
   2.50000000E+001   5.95017455E-001   5.78778928E-001   5.72808377E-001
   3.00000000E+001   6.58789472E-001   6.22241513E-001   6.40033654E-001
   3.50000000E+001   7.09141064E-001   6.51942670E-001   6.93667740E-001
   4.00000000E+001   7.50657505E-001   6.71782482E-001   7.38265029E-001
   4.50000000E+001   7.85609334E-001   6.84584266E-001   7.75885549E-001
   5.00000000E+001   8.14495515E-001   6.92480819E-001   8.06967537E-001
   5.50000000E+001   8.40261426E-001   6.97105650E-001   8.34514649E-001
   6.00000000E+001   8.61036223E-001   6.99666199E-001   8.56658691E-001
   6.50000000E+001   8.76826509E-001   7.01001102E-001   8.73491663E-001
   7.00000000E+001   8.92617830E-001   7.01650869E-001   8.90085568E-001
   7.50000000E+001   9.06033694E-001   7.01938659E-001   9.04105497E-001
   8.00000000E+001   9.16705694E-001   7.02045461E-001   9.15225465E-001
   8.50000000E+001   9.26901218E-001   7.02067012E-001   9.25758034E-001
   9.00000000E+001   9.35833805E-001   7.02051765E-001   9.34943752E-001
   9.50000000E+001   9.41551940E-001   7.02023208E-001   9.40852628E-001
   1.00000000E+002   9.49129014E-001   7.01992149E-001   9.48575677E-001
   1.05000000E+002   9.54256197E-001   7.01963156E-001   9.53814240E-001
   1.10000000E+002   9.60128200E-001   7.01937831E-001   9.59772663E-001
   1.15000000E+002   9.65006943E-001   7.01916431E-001   9.64718601E-001
   1.20000000E+002   9.68450020E-001   7.01898656E-001   9.68214412E-001
   1.25000000E+002   9.71326539E-001   7.01884017E-001   9.71132765E-001
   1.30000000E+002   9.74680018E-001   7.01872003E-001   9.74519594E-001
   1.35000000E+002   9.77232201E-001   7.01862147E-001   9.77098521E-001
   1.40000000E+002   9.79751826E-001   7.01854051E-001   9.79639817E-001
   1.45000000E+002   9.82066431E-001   7.01847383E-001   9.81972039E-001
   1.50000000E+002   9.83943970E-001   7.01841872E-001   9.83864021E-001
   1.55000000E+002   9.85686985E-001   7.01837301E-001   9.85618934E-001
   1.60000000E+002   9.87759062E-001   7.01833494E-001   9.87700872E-001
   1.65000000E+002   9.89004553E-001   7.01830310E-001   9.88954556E-001
   1.70000000E+002   9.89926219E-001   7.01827636E-001   9.89883087E-001
   1.75000000E+002   9.91429758E-001   7.01825381E-001   9.91392403E-001
   1.80000000E+002   9.92163446E-001   7.01823472E-001   9.92130965E-001
   1.85000000E+002   9.93280742E-001   7.01821849E-001   9.93252407E-001
   1.90000000E+002   9.94019758E-001   7.01820464E-001   9.93994946E-001
   1.95000000E+002   9.94959190E-001   7.01819277E-001   9.94937393E-001
   2.00000000E+002   9.95452344E-001   7.01818258E-001   9.95433136E-001
   2.05000000E+002   9.95985974E-001   7.01817378E-001   9.95968995E-001
   2.10000000E+002   9.96465549E-001   7.01816617E-001   9.96450497E-001
   2.15000000E+002   9.97155775E-001   7.01815955E-001   9.97142399E-001
   2.20000000E+002   9.97488072E-001   7.01815380E-001   9.97476149E-001
   2.25000000E+002   9.98031352E-001   7.01814877E-001   9.98020700E-001
   2.30000000E+002   9.98323803E-001   7.01814436E-001   9.98314264E-001
   2.35000000E+002   9.98436767E-001   7.01814049E-001   9.98428204E-001
   2.40000000E+002   9.98843394E-001   7.01813708E-001   9.98835691E-001
   2.45000000E+002   9.99149090E-001   7.01813407E-001   9.99142145E-001
