# ./jetvheto -in n3lo-fixed-order/H125-LHC13-R04-mb-0-mt-1725-xmur025-xmuf025-log.fxd -xQ 0.5 -out benchmarks-n3lo-smallR/H125-LHC13-R04-mb-0-mt-1725-xmur025-xmuf025-xQ050-N3LO+NNLLa.res -scheme a -order 2 -ptmax 500.01 -fixed_order 3 -loop-mass t
# process = H    
# collider = pp   
# rts =  13000.000
# M   =    125.000
# muR =     31.250
# muF =     31.250
# Q   =     62.500
# p   =      5.000
# include_c1_squared =   F
# loop_mass  = t   
# alphas(MZ) =    0.11800
# alphas(M) =    0.11264
# alphas(muR) =    0.14091
# Rjet =      0.400
# order = NNLL
# pdf name and set = PDF4LHC15_nnlo_mc.LHgrid,    0
# matching scheme = a
# total cross sections [nb] at LO, NLOdiff, NNLOdiff, N3LOdiff =     0.018140    0.025356    0.006043   -0.002471
#----------------------------------------------------------------------
# the lines that follow give the jet-veto efficiencies as a function of pt
#         pt            matched eff      resummed eff     fixed-order eff
   2.00000000E+001   4.75407232E-001   4.84030981E-001   4.60281449E-001
   2.50000000E+001   5.64855175E-001   5.55956936E-001   5.50385931E-001
   3.00000000E+001   6.34202697E-001   6.06053019E-001   6.21139730E-001
   3.50000000E+001   6.88842661E-001   6.40487948E-001   6.77588964E-001
   4.00000000E+001   7.33745753E-001   6.63700823E-001   7.24527077E-001
   4.50000000E+001   7.71437697E-001   6.78896868E-001   7.64122223E-001
   5.00000000E+001   8.02537290E-001   6.88481835E-001   7.96835644E-001
   5.50000000E+001   8.30185414E-001   6.94288394E-001   8.25828649E-001
   6.00000000E+001   8.52462154E-001   6.97671004E-001   8.49134989E-001
   6.50000000E+001   8.69397731E-001   6.99576203E-001   8.66851489E-001
   7.00000000E+001   8.86250858E-001   7.00622194E-001   8.84316376E-001
   7.50000000E+001   9.00545693E-001   7.01186793E-001   8.99072184E-001
   8.00000000E+001   9.11909107E-001   7.01488673E-001   9.10775817E-001
   8.50000000E+001   9.22736963E-001   7.01649205E-001   9.21861220E-001
   9.00000000E+001   9.32211258E-001   7.01734173E-001   9.31529078E-001
   9.50000000E+001   9.38285238E-001   7.01778792E-001   9.37748099E-001
   1.00000000E+002   9.46301369E-001   7.01801839E-001   9.45876515E-001
   1.05000000E+002   9.51729726E-001   7.01813344E-001   9.51390040E-001
   1.10000000E+002   9.57934382E-001   7.01818687E-001   9.57661210E-001
   1.15000000E+002   9.63088294E-001   7.01820772E-001   9.62866750E-001
   1.20000000E+002   9.66727180E-001   7.01821170E-001   9.66546049E-001
   1.25000000E+002   9.69766611E-001   7.01820733E-001   9.69617581E-001
   1.30000000E+002   9.73305534E-001   7.01819920E-001   9.73182178E-001
   1.35000000E+002   9.75999272E-001   7.01818977E-001   9.75896468E-001
   1.40000000E+002   9.78657270E-001   7.01818029E-001   9.78571151E-001
   1.45000000E+002   9.81098344E-001   7.01817137E-001   9.81025787E-001
   1.50000000E+002   9.83078517E-001   7.01816329E-001   9.83017075E-001
   1.55000000E+002   9.84916383E-001   7.01815610E-001   9.84864101E-001
   1.60000000E+002   9.87099991E-001   7.01814980E-001   9.87055315E-001
   1.65000000E+002   9.88413182E-001   7.01814431E-001   9.88374802E-001
   1.70000000E+002   9.89385175E-001   7.01813956E-001   9.89352070E-001
   1.75000000E+002   9.90969260E-001   7.01813544E-001   9.90940607E-001
   1.80000000E+002   9.91742845E-001   7.01813188E-001   9.91717934E-001
   1.85000000E+002   9.92919957E-001   7.01812880E-001   9.92898239E-001
   1.90000000E+002   9.93698763E-001   7.01812614E-001   9.93679753E-001
   1.95000000E+002   9.94688359E-001   7.01812383E-001   9.94671667E-001
   2.00000000E+002   9.95208135E-001   7.01812182E-001   9.95193430E-001
   2.05000000E+002   9.95770409E-001   7.01812008E-001   9.95757415E-001
   2.10000000E+002   9.96275707E-001   7.01811856E-001   9.96264190E-001
   2.15000000E+002   9.97002637E-001   7.01811723E-001   9.96992409E-001
   2.20000000E+002   9.97352791E-001   7.01811606E-001   9.97343677E-001
   2.25000000E+002   9.97924949E-001   7.01811504E-001   9.97916811E-001
   2.30000000E+002   9.98233068E-001   7.01811414E-001   9.98225783E-001
   2.35000000E+002   9.98352241E-001   7.01811335E-001   9.98345703E-001
   2.40000000E+002   9.98780458E-001   7.01811265E-001   9.98774579E-001
   2.45000000E+002   9.99102416E-001   7.01811203E-001   9.99097118E-001
