# ./jetvheto -in n3lo-fixed-order/H125-LHC13-R04-mb-0-mt-1725-xmur050-xmuf025-log.fxd -xQ 0.0625 -out benchmarks-n3lo-smallR/H125-LHC13-R04-mb-0-mt-1725-xmur050-xmuf025-xQ0625-NNLO+NNLLa.R0-1.0.res -scheme a -order 2 -ptmax 500.01 -small-r -fixed_order 2 -loop-mass t -R0 1.0
# process = H    
# collider = pp   
# rts =  13000.000
# M   =    125.000
# muR =     62.500
# muF =     31.250
# Q   =      7.812
# p   =      5.000
# include_c1_squared =   F
# loop_mass  = t   
# alphas(MZ) =    0.11800
# alphas(M) =    0.11264
# alphas(muR) =    0.12516
# Rjet =      0.400
# order = NNLL
# pdf name and set = PDF4LHC15_nnlo_mc.LHgrid,    0
# matching scheme = a
# total cross sections [nb] at LO, NLOdiff, NNLOdiff, N3LOdiff =     0.014513    0.020714    0.009723    0.001827
#----------------------------------------------------------------------
# the lines that follow give the jet-veto efficiencies as a function of pt
#         pt            matched eff      resummed eff     fixed-order eff
   2.00000000E+001   4.65002528E-001   1.72498226E-001   4.65116582E-001
   2.50000000E+001   5.50676490E-001   1.72867897E-001   5.50748567E-001
   3.00000000E+001   6.17488697E-001   1.72976172E-001   6.17529161E-001
   3.50000000E+001   6.71192134E-001   1.73015319E-001   6.71215264E-001
   4.00000000E+001   7.15006071E-001   1.73031747E-001   7.15019810E-001
   4.50000000E+001   7.51254789E-001   1.73039448E-001   7.51263285E-001
   5.00000000E+001   7.81766027E-001   1.73043380E-001   7.81771475E-001
   5.50000000E+001   8.07554778E-001   1.73045530E-001   8.07558389E-001
   6.00000000E+001   8.29648863E-001   1.73046772E-001   8.29651327E-001
   6.50000000E+001   8.48727015E-001   1.73047524E-001   8.48728738E-001
   7.00000000E+001   8.65303707E-001   1.73047997E-001   8.65304940E-001
   7.50000000E+001   8.79613634E-001   1.73048304E-001   8.79614533E-001
   8.00000000E+001   8.92292816E-001   1.73048510E-001   8.92293484E-001
   8.50000000E+001   9.03374083E-001   1.73048652E-001   9.03374587E-001
   9.00000000E+001   9.13202026E-001   1.73048751E-001   9.13202411E-001
   9.50000000E+001   9.21818857E-001   1.73048822E-001   9.21819156E-001
   1.00000000E+002   9.29537291E-001   1.73048874E-001   9.29537526E-001
   1.05000000E+002   9.36440863E-001   1.73048912E-001   9.36441049E-001
   1.10000000E+002   9.42562395E-001   1.73048941E-001   9.42562544E-001
   1.15000000E+002   9.48104920E-001   1.73048963E-001   9.48105041E-001
   1.20000000E+002   9.53071712E-001   1.73048980E-001   9.53071810E-001
   1.25000000E+002   9.57471534E-001   1.73048993E-001   9.57471615E-001
   1.30000000E+002   9.61480281E-001   1.73049003E-001   9.61480347E-001
   1.35000000E+002   9.65088271E-001   1.73049011E-001   9.65088327E-001
   1.40000000E+002   9.68361696E-001   1.73049018E-001   9.68361743E-001
   1.45000000E+002   9.71359239E-001   1.73049023E-001   9.71359278E-001
   1.50000000E+002   9.74040836E-001   1.73049028E-001   9.74040869E-001
   1.55000000E+002   9.76478654E-001   1.73049031E-001   9.76478682E-001
   1.60000000E+002   9.78713183E-001   1.73049034E-001   9.78713207E-001
   1.65000000E+002   9.80745453E-001   1.73049037E-001   9.80745474E-001
   1.70000000E+002   9.82570920E-001   1.73049039E-001   9.82570938E-001
   1.75000000E+002   9.84239510E-001   1.73049040E-001   9.84239526E-001
   1.80000000E+002   9.85766285E-001   1.73049042E-001   9.85766299E-001
   1.85000000E+002   9.87147299E-001   1.73049043E-001   9.87147310E-001
   1.90000000E+002   9.88426848E-001   1.73049044E-001   9.88426858E-001
   1.95000000E+002   9.89605133E-001   1.73049045E-001   9.89605142E-001
   2.00000000E+002   9.90662994E-001   1.73049045E-001   9.90663002E-001
   2.05000000E+002   9.91647864E-001   1.73049046E-001   9.91647871E-001
   2.10000000E+002   9.92556426E-001   1.73049047E-001   9.92556433E-001
   2.15000000E+002   9.93345006E-001   1.73049047E-001   9.93345012E-001
   2.20000000E+002   9.94091996E-001   1.73049048E-001   9.94092001E-001
   2.25000000E+002   9.94785846E-001   1.73049048E-001   9.94785851E-001
   2.30000000E+002   9.95401596E-001   1.73049048E-001   9.95401600E-001
   2.35000000E+002   9.95964063E-001   1.73049049E-001   9.95964066E-001
   2.40000000E+002   9.96470801E-001   1.73049049E-001   9.96470804E-001
   2.45000000E+002   9.96948619E-001   1.73049049E-001   9.96948622E-001
