# ./jetvheto -in n3lo-fixed-order/H125-LHC13-R04-mb-0-mt-1725-xmur050-xmuf050-log.fxd -xQ 0.333 -out benchmarks-n3lo-smallR/H125-LHC13-R04-mb-0-mt-1725-xmur050-xmuf050-xQ033-N3LO+NNLLa.res -scheme a -order 2 -ptmax 500.01 -fixed_order 3 -loop-mass t
# process = H    
# collider = pp   
# rts =  13000.000
# M   =    125.000
# muR =     62.500
# muF =     62.500
# Q   =     41.625
# p   =      5.000
# include_c1_squared =   F
# loop_mass  = t   
# alphas(MZ) =    0.11800
# alphas(M) =    0.11264
# alphas(muR) =    0.12516
# Rjet =      0.400
# order = NNLL
# pdf name and set = PDF4LHC15_nnlo_mc.LHgrid,    0
# matching scheme = a
# total cross sections [nb] at LO, NLOdiff, NNLOdiff, N3LOdiff =     0.015885    0.020561    0.008998    0.001413
#----------------------------------------------------------------------
# the lines that follow give the jet-veto efficiencies as a function of pt
#         pt            matched eff      resummed eff     fixed-order eff
   2.00000000E+001   4.57622950E-001   4.88248833E-001   4.58478332E-001
   2.50000000E+001   5.44094443E-001   5.65335583E-001   5.43713081E-001
   3.00000000E+001   6.16445175E-001   6.17611392E-001   6.16066731E-001
   3.50000000E+001   6.73962722E-001   6.51549773E-001   6.73487735E-001
   4.00000000E+001   7.18620047E-001   6.72660283E-001   7.18067162E-001
   4.50000000E+001   7.57363047E-001   6.85401504E-001   7.56928051E-001
   5.00000000E+001   7.88633389E-001   6.93009126E-001   7.88284226E-001
   5.50000000E+001   8.15468412E-001   6.97583442E-001   8.15210520E-001
   6.00000000E+001   8.37627688E-001   7.00385147E-001   8.37433297E-001
   6.50000000E+001   8.58060444E-001   7.02143078E-001   8.57921417E-001
   7.00000000E+001   8.73885842E-001   7.03274876E-001   8.73778810E-001
   7.50000000E+001   8.88005988E-001   7.04022229E-001   8.87924776E-001
   8.00000000E+001   9.00732535E-001   7.04527637E-001   9.00670973E-001
   8.50000000E+001   9.12017067E-001   7.04877040E-001   9.11969998E-001
   9.00000000E+001   9.21966093E-001   7.05123510E-001   9.21929710E-001
   9.50000000E+001   9.29936265E-001   7.05300592E-001   9.29907319E-001
   1.00000000E+002   9.37528992E-001   7.05429964E-001   9.37506036E-001
   1.05000000E+002   9.43562112E-001   7.05525931E-001   9.43543485E-001
   1.10000000E+002   9.49101044E-001   7.05598113E-001   9.49085884E-001
   1.15000000E+002   9.54335347E-001   7.05653101E-001   9.54323006E-001
   1.20000000E+002   9.59049885E-001   7.05695482E-001   9.59039767E-001
   1.25000000E+002   9.62981297E-001   7.05728499E-001   9.62972878E-001
   1.30000000E+002   9.66373520E-001   7.05754476E-001   9.66366470E-001
   1.35000000E+002   9.69736821E-001   7.05775103E-001   9.69730923E-001
   1.40000000E+002   9.72801998E-001   7.05791622E-001   9.72797037E-001
   1.45000000E+002   9.75469813E-001   7.05804955E-001   9.75465608E-001
   1.50000000E+002   9.77555908E-001   7.05815796E-001   9.77552300E-001
   1.55000000E+002   9.79917109E-001   7.05824672E-001   9.79914033E-001
   1.60000000E+002   9.82031986E-001   7.05831987E-001   9.82029350E-001
   1.65000000E+002   9.83337297E-001   7.05838050E-001   9.83335000E-001
   1.70000000E+002   9.85015339E-001   7.05843106E-001   9.85013351E-001
   1.75000000E+002   9.86562065E-001   7.05847344E-001   9.86560338E-001
   1.80000000E+002   9.87748073E-001   7.05850913E-001   9.87746562E-001
   1.85000000E+002   9.88837943E-001   7.05853935E-001   9.88836616E-001
   1.90000000E+002   9.89953334E-001   7.05856504E-001   9.89952168E-001
   1.95000000E+002   9.90983099E-001   7.05858698E-001   9.90982071E-001
   2.00000000E+002   9.91893484E-001   7.05860579E-001   9.91892575E-001
   2.05000000E+002   9.92611788E-001   7.05862198E-001   9.92610981E-001
   2.10000000E+002   9.93332379E-001   7.05863597E-001   9.93331661E-001
   2.15000000E+002   9.93892692E-001   7.05864809E-001   9.93892050E-001
   2.20000000E+002   9.94689647E-001   7.05865864E-001   9.94689076E-001
   2.25000000E+002   9.95103953E-001   7.05866783E-001   9.95103439E-001
   2.30000000E+002   9.95613564E-001   7.05867589E-001   9.95613102E-001
   2.35000000E+002   9.95984773E-001   7.05868295E-001   9.95984357E-001
   2.40000000E+002   9.96389388E-001   7.05868917E-001   9.96389013E-001
   2.45000000E+002   9.96862371E-001   7.05869466E-001   9.96862033E-001
