# ./jetvheto -in n3lo-fixed-order/H125-LHC13-R04-mb-475-mt-1725-xmur100-xmuf050-log.fxd -xQ 0.5 -out benchmarks-n3lo-smallR/H125-LHC13-R04-mb-475-mt-1725-xmur100-xmuf050-xQ050-N3LO+NNLLb.R0-1.5.res -scheme b -order 2 -ptmax 500.01 -fixed_order 3 -small-r -loop-mass t+b -R0 1.5
# process = H    
# collider = pp   
# rts =  13000.000
# M   =    125.000
# muR =    125.000
# muF =     62.500
# Q   =     62.500
# p   =      5.000
# include_c1_squared =   F
# loop_mass  = t+b 
# alphas(MZ) =    0.11800
# alphas(M) =    0.11264
# alphas(muR) =    0.11264
# Rjet =      0.400
# order = NNLL
# pdf name and set = PDF4LHC15_nnlo_mc.LHgrid,    0
# matching scheme = b
# total cross sections [nb] at LO, NLOdiff, NNLOdiff, N3LOdiff =     0.011575    0.016866    0.010424    0.004163
#----------------------------------------------------------------------
# the lines that follow give the jet-veto efficiencies as a function of pt
#         pt            matched eff      resummed eff     fixed-order eff
   2.00000000E+001   4.22920534E-001   4.90705123E-001   3.95043602E-001
   2.50000000E+001   5.08736000E-001   5.70856272E-001   4.88534588E-001
   3.00000000E+001   5.80942584E-001   6.28265535E-001   5.66104441E-001
   3.50000000E+001   6.39557928E-001   6.68901884E-001   6.28112290E-001
   4.00000000E+001   6.86349582E-001   6.97181379E-001   6.77231454E-001
   4.50000000E+001   7.26894589E-001   7.16398857E-001   7.19705835E-001
   5.00000000E+001   7.60118252E-001   7.29096797E-001   7.54443972E-001
   5.50000000E+001   7.88818838E-001   7.37255681E-001   7.84394199E-001
   6.00000000E+001   8.12880435E-001   7.42380694E-001   8.09449218E-001
   6.50000000E+001   8.34627613E-001   7.45556126E-001   8.31989521E-001
   7.00000000E+001   8.52343105E-001   7.47519198E-001   8.50311618E-001
   7.50000000E+001   8.68055331E-001   7.48743526E-001   8.66492063E-001
   8.00000000E+001   8.82182576E-001   7.49520538E-001   8.80975853E-001
   8.50000000E+001   8.94767356E-001   7.50024951E-001   8.93830869E-001
   9.00000000E+001   9.05843880E-001   7.50360837E-001   9.05112243E-001
   9.50000000E+001   9.15102058E-001   7.50590310E-001   9.14525864E-001
   1.00000000E+002   9.23712021E-001   7.50750952E-001   9.23254849E-001
   1.05000000E+002   9.30945778E-001   7.50865964E-001   9.30580037E-001
   1.10000000E+002   9.37486484E-001   7.50949995E-001   9.37191662E-001
   1.15000000E+002   9.43579772E-001   7.51012513E-001   9.43340381E-001
   1.20000000E+002   9.49042058E-001   7.51059783E-001   9.48846269E-001
   1.25000000E+002   9.53763378E-001   7.51096042E-001   9.53602088E-001
   1.30000000E+002   9.57912937E-001   7.51124213E-001   9.57779208E-001
   1.35000000E+002   9.61884057E-001   7.51146354E-001   9.61772510E-001
   1.40000000E+002   9.65503396E-001   7.51163938E-001   9.65409802E-001
   1.45000000E+002   9.68684553E-001   7.51178034E-001   9.68605581E-001
   1.50000000E+002   9.71345874E-001   7.51189432E-001   9.71278869E-001
   1.55000000E+002   9.74106171E-001   7.51198721E-001   9.74049059E-001
   1.60000000E+002   9.76590020E-001   7.51206346E-001   9.76541110E-001
   1.65000000E+002   9.78406471E-001   7.51212647E-001   9.78364382E-001
   1.70000000E+002   9.80398878E-001   7.51217886E-001   9.80362517E-001
   1.75000000E+002   9.82262725E-001   7.51222268E-001   9.82231187E-001
   1.80000000E+002   9.83784590E-001   7.51225952E-001   9.83757129E-001
   1.85000000E+002   9.85194084E-001   7.51229065E-001   9.85170084E-001
   1.90000000E+002   9.86562608E-001   7.51231709E-001   9.86541564E-001
   1.95000000E+002   9.87819122E-001   7.51233964E-001   9.87800610E-001
   2.00000000E+002   9.88942762E-001   7.51235895E-001   9.88926426E-001
   2.05000000E+002   9.89897808E-001   7.51237556E-001   9.89883347E-001
   2.10000000E+002   9.90806962E-001   7.51238990E-001   9.90794127E-001
   2.15000000E+002   9.91583837E-001   7.51240231E-001   9.91572413E-001
   2.20000000E+002   9.92500783E-001   7.51241311E-001   9.92490589E-001
   2.25000000E+002   9.93101263E-001   7.51242252E-001   9.93092144E-001
   2.30000000E+002   9.93757349E-001   7.51243076E-001   9.93749172E-001
   2.35000000E+002   9.94285162E-001   7.51243798E-001   9.94277812E-001
   2.40000000E+002   9.94817254E-001   7.51244434E-001   9.94810633E-001
   2.45000000E+002   9.95369539E-001   7.51244995E-001   9.95363563E-001
