# ./jetvheto -in n3lo-fixed-order/H125-LHC13-R04-mb-475-mt-1725-xmur050-xmuf050-log.fxd -xQ 0.125 -out benchmarks-n3lo-smallR/H125-LHC13-R04-mb-475-mt-1725-xmur050-xmuf050-xQ125-N3LO+NNLLa.R0-1.5.res -scheme a -order 2 -ptmax 500.01 -fixed_order 3 -small-r -loop-mass t+b -R0 1.5
# process = H    
# collider = pp   
# rts =  13000.000
# M   =    125.000
# muR =     62.500
# muF =     62.500
# Q   =     15.625
# p   =      5.000
# include_c1_squared =   F
# loop_mass  = t+b 
# alphas(MZ) =    0.11800
# alphas(M) =    0.11264
# alphas(muR) =    0.12516
# Rjet =      0.400
# order = NNLL
# pdf name and set = PDF4LHC15_nnlo_mc.LHgrid,    0
# matching scheme = a
# total cross sections [nb] at LO, NLOdiff, NNLOdiff, N3LOdiff =     0.014147    0.020254    0.008998    0.001413
#----------------------------------------------------------------------
# the lines that follow give the jet-veto efficiencies as a function of pt
#         pt            matched eff      resummed eff     fixed-order eff
   2.00000000E+001   4.40587633E-001   4.21865208E-001   4.41074844E-001
   2.50000000E+001   5.26057302E-001   4.35674590E-001   5.26291803E-001
   3.00000000E+001   5.99431251E-001   4.40174715E-001   5.99588615E-001
   3.50000000E+001   6.58008836E-001   4.41861013E-001   6.58104134E-001
   4.00000000E+001   7.03644361E-001   4.42578513E-001   7.03699261E-001
   4.50000000E+001   7.43873450E-001   4.42916910E-001   7.43908515E-001
   5.00000000E+001   7.76245499E-001   4.43090222E-001   7.76267730E-001
   5.50000000E+001   8.04423503E-001   4.43185108E-001   8.04438345E-001
   6.00000000E+001   8.27657853E-001   4.43239986E-001   8.27667847E-001
   6.50000000E+001   8.49066391E-001   4.43273211E-001   8.49073502E-001
   7.00000000E+001   8.65762078E-001   4.43294121E-001   8.65767048E-001
   7.50000000E+001   8.80670503E-001   4.43307726E-001   8.80674091E-001
   8.00000000E+001   8.94135381E-001   4.43316837E-001   8.94138038E-001
   8.50000000E+001   9.06104832E-001   4.43323092E-001   9.06106835E-001
   9.00000000E+001   9.16609476E-001   4.43327484E-001   9.16611008E-001
   9.50000000E+001   9.25077305E-001   4.43330629E-001   9.25078477E-001
   1.00000000E+002   9.33100872E-001   4.43332922E-001   9.33101787E-001
   1.05000000E+002   9.39584889E-001   4.43334619E-001   9.39585604E-001
   1.10000000E+002   9.45494624E-001   4.43335894E-001   9.45495190E-001
   1.15000000E+002   9.51093650E-001   4.43336864E-001   9.51094105E-001
   1.20000000E+002   9.56107309E-001   4.43337611E-001   9.56107678E-001
   1.25000000E+002   9.60295977E-001   4.43338193E-001   9.60296277E-001
   1.30000000E+002   9.63937777E-001   4.43338651E-001   9.63938023E-001
   1.35000000E+002   9.67546687E-001   4.43339014E-001   9.67546891E-001
   1.40000000E+002   9.70830080E-001   4.43339304E-001   9.70830250E-001
   1.45000000E+002   9.73664502E-001   4.43339539E-001   9.73664645E-001
   1.50000000E+002   9.75887700E-001   4.43339730E-001   9.75887820E-001
   1.55000000E+002   9.78411427E-001   4.43339886E-001   9.78411529E-001
   1.60000000E+002   9.80668008E-001   4.43340015E-001   9.80668095E-001
   1.65000000E+002   9.82074070E-001   4.43340121E-001   9.82074144E-001
   1.70000000E+002   9.83849977E-001   4.43340210E-001   9.83850040E-001
   1.75000000E+002   9.85520580E-001   4.43340285E-001   9.85520635E-001
   1.80000000E+002   9.86797298E-001   4.43340347E-001   9.86797346E-001
   1.85000000E+002   9.87975351E-001   4.43340401E-001   9.87975392E-001
   1.90000000E+002   9.89172301E-001   4.43340446E-001   9.89172337E-001
   1.95000000E+002   9.90274780E-001   4.43340484E-001   9.90274812E-001
   2.00000000E+002   9.91246335E-001   4.43340517E-001   9.91246363E-001
   2.05000000E+002   9.92022392E-001   4.43340546E-001   9.92022417E-001
   2.10000000E+002   9.92795386E-001   4.43340570E-001   9.92795408E-001
   2.15000000E+002   9.93402901E-001   4.43340592E-001   9.93402921E-001
   2.20000000E+002   9.94259293E-001   4.43340610E-001   9.94259310E-001
   2.25000000E+002   9.94706364E-001   4.43340626E-001   9.94706379E-001
   2.30000000E+002   9.95249330E-001   4.43340641E-001   9.95249343E-001
   2.35000000E+002   9.95653989E-001   4.43340653E-001   9.95654001E-001
   2.40000000E+002   9.96087971E-001   4.43340664E-001   9.96087982E-001
   2.45000000E+002   9.96585692E-001   4.43340674E-001   9.96585702E-001
