# ./jetvheto -in n3lo-fixed-order/H125-LHC13-R04-heft-xmur050-xmuf050-log.fxd -xQ 0.75 -out benchmarks-n3lo-smallR/H125-LHC13-R04-heft-xmur050-xmuf050-xQ075-N3LO+NNLLa.res -scheme a -order 2 -ptmax 500.01 -fixed_order 3
# process = H    
# collider = pp   
# rts =  13000.000
# M   =    125.000
# muR =     62.500
# muF =     62.500
# Q   =     93.750
# p   =      5.000
# include_c1_squared =   F
# loop_mass  = none
# alphas(MZ) =    0.11800
# alphas(M) =    0.11264
# alphas(muR) =    0.12516
# Rjet =      0.400
# order = NNLL
# pdf name and set = PDF4LHC15_nnlo_mc.LHgrid,    0
# matching scheme = a
# total cross sections [nb] at LO, NLOdiff, NNLOdiff, N3LOdiff =     0.015055    0.019611    0.008998    0.001413
#----------------------------------------------------------------------
# the lines that follow give the jet-veto efficiencies as a function of pt
#         pt            matched eff      resummed eff     fixed-order eff
   2.00000000E+001   4.67669468E-001   5.35821914E-001   4.50065620E-001
   2.50000000E+001   5.54155860E-001   6.17398336E-001   5.35117843E-001
   3.00000000E+001   6.26642574E-001   6.74630483E-001   6.07875407E-001
   3.50000000E+001   6.83812006E-001   7.14470736E-001   6.65471707E-001
   4.00000000E+001   7.27845570E-001   7.41757796E-001   7.10255567E-001
   4.50000000E+001   7.65902076E-001   7.59901123E-001   7.49462038E-001
   5.00000000E+001   7.95976484E-001   7.71344205E-001   7.80889863E-001
   5.50000000E+001   8.21897478E-001   7.77888990E-001   8.08255100E-001
   6.00000000E+001   8.42792420E-001   7.80884353E-001   8.30655804E-001
   6.50000000E+001   8.62074529E-001   7.81371639E-001   8.51359759E-001
   7.00000000E+001   8.76686065E-001   7.80166261E-001   8.67401068E-001
   7.50000000E+001   8.89695415E-001   7.77905040E-001   8.81721105E-001
   8.00000000E+001   9.01431929E-001   7.75076660E-001   8.94630807E-001
   8.50000000E+001   9.11836690E-001   7.72040411E-001   9.06075690E-001
   9.00000000E+001   9.21047486E-001   7.69044370E-001   9.16194285E-001
   9.50000000E+001   9.28356290E-001   7.66243393E-001   9.24302841E-001
   1.00000000E+002   9.35355665E-001   7.63721555E-001   9.31969203E-001
   1.05000000E+002   9.40929597E-001   7.61511387E-001   9.38114001E-001
   1.10000000E+002   9.46123959E-001   7.59611430E-001   9.43779750E-001
   1.15000000E+002   9.51060272E-001   7.58000243E-001   9.49102964E-001
   1.20000000E+002   9.55542985E-001   7.56646540E-001   9.53905269E-001
   1.25000000E+002   9.59239531E-001   7.55515820E-001   9.57868349E-001
   1.30000000E+002   9.62484325E-001   7.54574545E-001   9.61333266E-001
   1.35000000E+002   9.65769543E-001   7.53792107E-001   9.64797911E-001
   1.40000000E+002   9.68757373E-001   7.53141668E-001   9.67934219E-001
   1.45000000E+002   9.71323182E-001   7.52600341E-001   9.70623723E-001
   1.50000000E+002   9.73320857E-001   7.52148951E-001   9.72725389E-001
   1.55000000E+002   9.75638229E-001   7.51771609E-001   9.75127782E-001
   1.60000000E+002   9.77742388E-001   7.51455253E-001   9.77303274E-001
   1.65000000E+002   9.79013254E-001   7.51189183E-001   9.78635491E-001
   1.70000000E+002   9.80695061E-001   7.50964660E-001   9.80367872E-001
   1.75000000E+002   9.82274859E-001   7.50774546E-001   9.81990419E-001
   1.80000000E+002   9.83488320E-001   7.50613008E-001   9.83240537E-001
   1.85000000E+002   9.84600760E-001   7.50475276E-001   9.84384183E-001
   1.90000000E+002   9.85754486E-001   7.50357439E-001   9.85564426E-001
   1.95000000E+002   9.86819769E-001   7.50256283E-001   9.86652461E-001
   2.00000000E+002   9.87771354E-001   7.50169160E-001   9.87623667E-001
   2.05000000E+002   9.88542252E-001   7.50093882E-001   9.88411596E-001
   2.10000000E+002   9.89326544E-001   7.50028634E-001   9.89210583E-001
   2.15000000E+002   9.89936345E-001   7.49971908E-001   9.89833220E-001
   2.20000000E+002   9.90800804E-001   7.49922445E-001   9.90708699E-001
   2.25000000E+002   9.91270210E-001   7.49879194E-001   9.91187907E-001
   2.30000000E+002   9.91842321E-001   7.49841268E-001   9.91768546E-001
   2.35000000E+002   9.92279459E-001   7.49807925E-001   9.92213208E-001
   2.40000000E+002   9.92750189E-001   7.49778535E-001   9.92690544E-001
   2.45000000E+002   9.93296628E-001   7.49752564E-001   9.93242783E-001
