# ./jetvheto -in n3lo-fixed-order/H125-LHC13-R04-heft-xmur100-xmuf100-log.fxd -xQ 0.75 -out benchmarks-n3lo-smallR/H125-LHC13-R04-heft-xmur100-xmuf100-xQ075-NNLO+NNLLa.R0-1.5.res -scheme a -order 2 -ptmax 500.01 -fixed_order 2 -small-r -R0 1.5
# process = H    
# collider = pp   
# rts =  13000.000
# M   =    125.000
# muR =    125.000
# muF =    125.000
# Q   =     93.750
# p   =      5.000
# include_c1_squared =   F
# loop_mass  = none
# alphas(MZ) =    0.11800
# alphas(M) =    0.11264
# alphas(muR) =    0.11264
# Rjet =      0.400
# order = NNLL
# pdf name and set = PDF4LHC15_nnlo_mc.LHgrid,    0
# matching scheme = a
# total cross sections [nb] at LO, NLOdiff, NNLOdiff, N3LOdiff =     0.012945    0.016716    0.010146    0.003834
#----------------------------------------------------------------------
# the lines that follow give the jet-veto efficiencies as a function of pt
#         pt            matched eff      resummed eff     fixed-order eff
   2.00000000E+001   5.14275331E-001   5.55273531E-001   5.03121755E-001
   2.50000000E+001   6.03147212E-001   6.38136983E-001   5.84489186E-001
   3.00000000E+001   6.72087470E-001   6.96645874E-001   6.47024325E-001
   3.50000000E+001   7.26003109E-001   7.37643801E-001   6.96432698E-001
   4.00000000E+001   7.68728312E-001   7.65945305E-001   7.36537087E-001
   4.50000000E+001   8.02693321E-001   7.84959359E-001   7.69498888E-001
   5.00000000E+001   8.29950604E-001   7.97125915E-001   7.97057559E-001
   5.50000000E+001   8.51887139E-001   8.04250382E-001   8.20296043E-001
   6.00000000E+001   8.69753123E-001   8.07701854E-001   8.40179538E-001
   6.50000000E+001   8.84402220E-001   8.08543561E-001   8.57311575E-001
   7.00000000E+001   8.96420735E-001   8.07609875E-001   8.72069843E-001
   7.50000000E+001   9.06491472E-001   8.05552641E-001   8.84956099E-001
   8.00000000E+001   9.15018194E-001   8.02873318E-001   8.96237121E-001
   8.50000000E+001   9.22289727E-001   7.99942679E-001   9.06102675E-001
   9.00000000E+001   9.28703611E-001   7.97019430E-001   9.14880120E-001
   9.50000000E+001   9.34324525E-001   7.94268047E-001   9.22604114E-001
   1.00000000E+002   9.39361027E-001   7.91779513E-001   9.29473021E-001
   1.05000000E+002   9.43919721E-001   7.89591454E-001   9.35603161E-001
   1.10000000E+002   9.48037738E-001   7.87706045E-001   9.41053390E-001
   1.15000000E+002   9.51841524E-001   7.86104417E-001   9.45975962E-001
   1.20000000E+002   9.55311641E-001   7.84756943E-001   9.50380922E-001
   1.25000000E+002   9.58506705E-001   7.83630326E-001   9.54354081E-001
   1.30000000E+002   9.61439871E-001   7.82691738E-001   9.57933958E-001
   1.35000000E+002   9.64164580E-001   7.81911033E-001   9.61195880E-001
   1.40000000E+002   9.66631936E-001   7.81261702E-001   9.64110237E-001
   1.45000000E+002   9.68960591E-001   7.80721075E-001   9.66811003E-001
   1.50000000E+002   9.71055314E-001   7.80270117E-001   9.69216654E-001
   1.55000000E+002   9.73003588E-001   7.79893035E-001   9.71425199E-001
   1.60000000E+002   9.74818941E-001   7.79576824E-001   9.73459094E-001
   1.65000000E+002   9.76477516E-001   7.79310828E-001   9.75301855E-001
   1.70000000E+002   9.78030581E-001   7.79086333E-001   9.77010596E-001
   1.75000000E+002   9.79442219E-001   7.78896216E-001   9.78554343E-001
   1.80000000E+002   9.80766144E-001   7.78734660E-001   9.79990696E-001
   1.85000000E+002   9.81975822E-001   7.78596900E-001   9.81296426E-001
   1.90000000E+002   9.83101012E-001   7.78479029E-001   9.82503927E-001
   1.95000000E+002   9.84164615E-001   7.78377838E-001   9.83638287E-001
   2.00000000E+002   9.85140483E-001   7.78290679E-001   9.84675207E-001
   2.05000000E+002   9.86051535E-001   7.78215366E-001   9.85639085E-001
   2.10000000E+002   9.86889608E-001   7.78150085E-001   9.86523019E-001
   2.15000000E+002   9.87657638E-001   7.78093328E-001   9.87330981E-001
   2.20000000E+002   9.88384020E-001   7.78043838E-001   9.88092219E-001
   2.25000000E+002   9.89056264E-001   7.78000560E-001   9.88794983E-001
   2.30000000E+002   9.89685552E-001   7.77962612E-001   9.89451061E-001
   2.35000000E+002   9.90286722E-001   7.77929247E-001   9.90075806E-001
   2.40000000E+002   9.90830963E-001   7.77899837E-001   9.90640855E-001
   2.45000000E+002   9.91346661E-001   7.77873849E-001   9.91174955E-001
