# ./jetvheto -in n3lo-fixed-order/H125-LHC13-R04-mb-0-mt-1725-xmur050-xmuf025-log.fxd -xQ 0.5 -out benchmarks-n3lo-smallR/H125-LHC13-R04-mb-0-mt-1725-xmur050-xmuf025-xQ050-NNLO+NNLLa.res -scheme a -order 2 -ptmax 500.01 -fixed_order 2 -loop-mass t
# process = H    
# collider = pp   
# rts =  13000.000
# M   =    125.000
# muR =     62.500
# muF =     31.250
# Q   =     62.500
# p   =      5.000
# include_c1_squared =   F
# loop_mass  = t   
# alphas(MZ) =    0.11800
# alphas(M) =    0.11264
# alphas(muR) =    0.12516
# Rjet =      0.400
# order = NNLL
# pdf name and set = PDF4LHC15_nnlo_mc.LHgrid,    0
# matching scheme = a
# total cross sections [nb] at LO, NLOdiff, NNLOdiff, N3LOdiff =     0.014513    0.020714    0.009723    0.001827
#----------------------------------------------------------------------
# the lines that follow give the jet-veto efficiencies as a function of pt
#         pt            matched eff      resummed eff     fixed-order eff
   2.00000000E+001   4.53727728E-001   4.80658539E-001   4.65116582E-001
   2.50000000E+001   5.44243469E-001   5.62945260E-001   5.50748567E-001
   3.00000000E+001   6.15617670E-001   6.21983791E-001   6.17529161E-001
   3.50000000E+001   6.72616234E-001   6.63795004E-001   6.71215264E-001
   4.00000000E+001   7.18441604E-001   6.92925288E-001   7.15019810E-001
   4.50000000E+001   7.55614527E-001   7.12757916E-001   7.51263285E-001
   5.00000000E+001   7.86281147E-001   7.25893538E-001   7.81771475E-001
   5.50000000E+001   8.11745211E-001   7.34360469E-001   8.07558389E-001
   6.00000000E+001   8.33285774E-001   7.39698901E-001   8.29651327E-001
   6.50000000E+001   8.51751362E-001   7.43021633E-001   8.48728738E-001
   7.00000000E+001   8.67751584E-001   7.45086447E-001   8.65304940E-001
   7.50000000E+001   8.81564972E-001   7.46381421E-001   8.79614533E-001
   8.00000000E+001   8.93836600E-001   7.47208117E-001   8.92293484E-001
   8.50000000E+001   9.04593133E-001   7.47748012E-001   9.03374587E-001
   9.00000000E+001   9.14166564E-001   7.48109511E-001   9.13202411E-001
   9.50000000E+001   9.22585239E-001   7.48357692E-001   9.21819156E-001
   1.00000000E+002   9.30149609E-001   7.48532172E-001   9.29537526E-001
   1.05000000E+002   9.36933184E-001   7.48657545E-001   9.36441049E-001
   1.10000000E+002   9.42960842E-001   7.48749424E-001   9.42562544E-001
   1.15000000E+002   9.48429597E-001   7.48817953E-001   9.48105041E-001
   1.20000000E+002   9.53338068E-001   7.48869876E-001   9.53071810E-001
   1.25000000E+002   9.57691478E-001   7.48909771E-001   9.57471615E-001
   1.30000000E+002   9.61663022E-001   7.48940811E-001   9.61480347E-001
   1.35000000E+002   9.65241004E-001   7.48965235E-001   9.65088327E-001
   1.40000000E+002   9.68490095E-001   7.48984650E-001   9.68361743E-001
   1.45000000E+002   9.71467764E-001   7.49000226E-001   9.71359278E-001
   1.50000000E+002   9.74133039E-001   7.49012829E-001   9.74040869E-001
   1.55000000E+002   9.76557374E-001   7.49023105E-001   9.76478682E-001
   1.60000000E+002   9.78780702E-001   7.49031544E-001   9.78713207E-001
   1.65000000E+002   9.80803617E-001   7.49038520E-001   9.80745474E-001
   1.70000000E+002   9.82621236E-001   7.49044323E-001   9.82570938E-001
   1.75000000E+002   9.84283206E-001   7.49049177E-001   9.84239526E-001
   1.80000000E+002   9.85804377E-001   7.49053259E-001   9.85766299E-001
   1.85000000E+002   9.87180625E-001   7.49056710E-001   9.87147310E-001
   1.90000000E+002   9.88456102E-001   7.49059640E-001   9.88426858E-001
   1.95000000E+002   9.89630896E-001   7.49062140E-001   9.89605142E-001
   2.00000000E+002   9.90685753E-001   7.49064281E-001   9.90663002E-001
   2.05000000E+002   9.91668027E-001   7.49066122E-001   9.91647871E-001
   2.10000000E+002   9.92574340E-001   7.49067712E-001   9.92556433E-001
   2.15000000E+002   9.93360964E-001   7.49069089E-001   9.93345012E-001
   2.20000000E+002   9.94106248E-001   7.49070287E-001   9.94092001E-001
   2.25000000E+002   9.94798606E-001   7.49071331E-001   9.94785851E-001
   2.30000000E+002   9.95413047E-001   7.49072244E-001   9.95401600E-001
   2.35000000E+002   9.95974362E-001   7.49073046E-001   9.95964066E-001
   2.40000000E+002   9.96480085E-001   7.49073751E-001   9.96470804E-001
   2.45000000E+002   9.96957005E-001   7.49074373E-001   9.96948622E-001
