# ./jetvheto -in n3lo-fixed-order/H125-LHC13-R04-mb-475-mt-1725-xmur050-xmuf100-log.fxd -xQ 0.25 -out benchmarks-n3lo-smallR/H125-LHC13-R04-mb-475-mt-1725-xmur050-xmuf100-xQ025-NNLO+NNLLa.R0-1.0.res -scheme a -order 2 -ptmax 500.01 -fixed_order 2 -small-r -loop-mass t+b -R0 1.0
# process = H    
# collider = pp   
# rts =  13000.000
# M   =    125.000
# muR =     62.500
# muF =    125.000
# Q   =     31.250
# p   =      5.000
# include_c1_squared =   F
# loop_mass  = t+b 
# alphas(MZ) =    0.11800
# alphas(M) =    0.11264
# alphas(muR) =    0.12516
# Rjet =      0.400
# order = NNLL
# pdf name and set = PDF4LHC15_nnlo_mc.LHgrid,    0
# matching scheme = a
# total cross sections [nb] at LO, NLOdiff, NNLOdiff, N3LOdiff =     0.015023    0.020252    0.008553    0.000949
#----------------------------------------------------------------------
# the lines that follow give the jet-veto efficiencies as a function of pt
#         pt            matched eff      resummed eff     fixed-order eff
   2.00000000E+001   4.52883767E-001   4.81229701E-001   4.52947522E-001
   2.50000000E+001   5.39370098E-001   5.46500820E-001   5.40649579E-001
   3.00000000E+001   6.07934310E-001   5.84899394E-001   6.09146724E-001
   3.50000000E+001   6.63122816E-001   6.05798336E-001   6.64036606E-001
   4.00000000E+001   7.08118591E-001   6.16777084E-001   7.08772946E-001
   4.50000000E+001   7.45326317E-001   6.22579384E-001   7.45785109E-001
   5.00000000E+001   7.76501597E-001   6.25740021E-001   7.76823295E-001
   5.50000000E+001   8.02776743E-001   6.27530841E-001   8.03003904E-001
   6.00000000E+001   8.25337319E-001   6.28587294E-001   8.25500055E-001
   6.50000000E+001   8.44753863E-001   6.29234565E-001   8.44871993E-001
   7.00000000E+001   8.61502274E-001   6.29644960E-001   8.61589128E-001
   7.50000000E+001   8.76063767E-001   6.29913243E-001   8.76128533E-001
   8.00000000E+001   8.88863194E-001   6.30093454E-001   8.88912118E-001
   8.50000000E+001   8.99998402E-001   6.30217466E-001   9.00035777E-001
   9.00000000E+001   9.09926703E-001   6.30304662E-001   9.09955619E-001
   9.50000000E+001   9.18634232E-001   6.30367166E-001   9.18656833E-001
   1.00000000E+002   9.26360378E-001   6.30412755E-001   9.26378220E-001
   1.05000000E+002   9.33265588E-001   6.30446530E-001   9.33279806E-001
   1.10000000E+002   9.39343396E-001   6.30471911E-001   9.39354824E-001
   1.15000000E+002   9.44846003E-001   6.30491233E-001   9.44855267E-001
   1.20000000E+002   9.49703545E-001   6.30506117E-001   9.49711111E-001
   1.25000000E+002   9.54137302E-001   6.30517708E-001   9.54143526E-001
   1.30000000E+002   9.58110075E-001   6.30526825E-001   9.58115228E-001
   1.35000000E+002   9.61718904E-001   6.30534062E-001   9.61723200E-001
   1.40000000E+002   9.64928372E-001   6.30539856E-001   9.64931972E-001
   1.45000000E+002   9.67911370E-001   6.30544532E-001   9.67914407E-001
   1.50000000E+002   9.70546425E-001   6.30548334E-001   9.70548997E-001
   1.55000000E+002   9.72979849E-001   6.30551447E-001   9.72982040E-001
   1.60000000E+002   9.75188254E-001   6.30554011E-001   9.75190129E-001
   1.65000000E+002   9.77192122E-001   6.30556137E-001   9.77193733E-001
   1.70000000E+002   9.79034343E-001   6.30557909E-001   9.79035734E-001
   1.75000000E+002   9.80687296E-001   6.30559395E-001   9.80688502E-001
   1.80000000E+002   9.82212357E-001   6.30560646E-001   9.82213406E-001
   1.85000000E+002   9.83596563E-001   6.30561705E-001   9.83597479E-001
   1.90000000E+002   9.84872600E-001   6.30562606E-001   9.84873402E-001
   1.95000000E+002   9.86065333E-001   6.30563375E-001   9.86066038E-001
   2.00000000E+002   9.87138562E-001   6.30564034E-001   9.87139184E-001
   2.05000000E+002   9.88137897E-001   6.30564601E-001   9.88138448E-001
   2.10000000E+002   9.89045052E-001   6.30565091E-001   9.89045540E-001
   2.15000000E+002   9.89858440E-001   6.30565516E-001   9.89858874E-001
   2.20000000E+002   9.90630072E-001   6.30565886E-001   9.90630459E-001
   2.25000000E+002   9.91333115E-001   6.30566208E-001   9.91333461E-001
   2.30000000E+002   9.91980975E-001   6.30566490E-001   9.91981285E-001
   2.35000000E+002   9.92590538E-001   6.30566738E-001   9.92590817E-001
   2.40000000E+002   9.93132190E-001   6.30566956E-001   9.93132441E-001
   2.45000000E+002   9.93647647E-001   6.30567148E-001   9.93647873E-001
