# ./jetvheto -in n3lo-fixed-order/H125-LHC13-R04-mb-475-mt-1725-xmur100-xmuf200-log.fxd -xQ 0.25 -out benchmarks-n3lo-smallR/H125-LHC13-R04-mb-475-mt-1725-xmur100-xmuf200-xQ025-N3LO+NNLLb.R0-0.5.res -scheme b -order 2 -ptmax 500.01 -fixed_order 3 -small-r -loop-mass t+b -R0 0.5
# process = H    
# collider = pp   
# rts =  13000.000
# M   =    125.000
# muR =    125.000
# muF =    250.000
# Q   =     31.250
# p   =      5.000
# include_c1_squared =   F
# loop_mass  = t+b 
# alphas(MZ) =    0.11800
# alphas(M) =    0.11264
# alphas(muR) =    0.11264
# Rjet =      0.400
# order = NNLL
# pdf name and set = PDF4LHC15_nnlo_mc.LHgrid,    0
# matching scheme = b
# total cross sections [nb] at LO, NLOdiff, NNLOdiff, N3LOdiff =     0.012791    0.017144    0.009991    0.003297
#----------------------------------------------------------------------
# the lines that follow give the jet-veto efficiencies as a function of pt
#         pt            matched eff      resummed eff     fixed-order eff
   2.00000000E+001   4.15673543E-001   5.31735683E-001   3.98403480E-001
   2.50000000E+001   5.04495120E-001   6.01171462E-001   4.96267892E-001
   3.00000000E+001   5.75024884E-001   6.41742317E-001   5.71031797E-001
   3.50000000E+001   6.34653009E-001   6.63716951E-001   6.32752564E-001
   4.00000000E+001   6.84072210E-001   6.75224717E-001   6.83141463E-001
   4.50000000E+001   7.23932820E-001   6.81295295E-001   7.23442380E-001
   5.00000000E+001   7.59871994E-001   6.84598489E-001   7.59617644E-001
   5.50000000E+001   7.88724979E-001   6.86468918E-001   7.88581283E-001
   6.00000000E+001   8.13459118E-001   6.87571935E-001   8.13375233E-001
   6.50000000E+001   8.34409593E-001   6.88247588E-001   8.34358241E-001
   7.00000000E+001   8.53763801E-001   6.88675919E-001   8.53732779E-001
   7.50000000E+001   8.69486793E-001   6.88955902E-001   8.69466670E-001
   8.00000000E+001   8.83136859E-001   6.89143961E-001   8.83123366E-001
   8.50000000E+001   8.95395958E-001   6.89273368E-001   8.95386863E-001
   9.00000000E+001   9.05726345E-001   6.89364356E-001   9.05719910E-001
   9.50000000E+001   9.15625312E-001   6.89429577E-001   9.15620884E-001
   1.00000000E+002   9.23829555E-001   6.89477146E-001   9.23826352E-001
   1.05000000E+002   9.30986366E-001   6.89512388E-001   9.30983974E-001
   1.10000000E+002   9.37115532E-001   6.89538872E-001   9.37113690E-001
   1.15000000E+002   9.43074777E-001   6.89559033E-001   9.43073389E-001
   1.20000000E+002   9.48500915E-001   6.89574563E-001   9.48499863E-001
   1.25000000E+002   9.52866429E-001   6.89586657E-001   9.52865589E-001
   1.30000000E+002   9.57126542E-001   6.89596169E-001   9.57125883E-001
   1.35000000E+002   9.60681498E-001   6.89603720E-001   9.60680960E-001
   1.40000000E+002   9.64406869E-001   6.89609766E-001   9.64406447E-001
   1.45000000E+002   9.67211391E-001   6.89614645E-001   9.67211040E-001
   1.50000000E+002   9.70061307E-001   6.89618612E-001   9.70061020E-001
   1.55000000E+002   9.72578686E-001   6.89621860E-001   9.72578448E-001
   1.60000000E+002   9.74734611E-001   6.89624535E-001   9.74734409E-001
   1.65000000E+002   9.76567833E-001   6.89626753E-001   9.76567658E-001
   1.70000000E+002   9.78648527E-001   6.89628603E-001   9.78648382E-001
   1.75000000E+002   9.80271719E-001   6.89630153E-001   9.80271594E-001
   1.80000000E+002   9.82145256E-001   6.89631458E-001   9.82145152E-001
   1.85000000E+002   9.83352441E-001   6.89632563E-001   9.83352349E-001
   1.90000000E+002   9.84650884E-001   6.89633503E-001   9.84650805E-001
   1.95000000E+002   9.85787600E-001   6.89634305E-001   9.85787530E-001
   2.00000000E+002   9.87128363E-001   6.89634993E-001   9.87128304E-001
   2.05000000E+002   9.87944485E-001   6.89635585E-001   9.87944432E-001
   2.10000000E+002   9.88735818E-001   6.89636097E-001   9.88735771E-001
   2.15000000E+002   9.89650942E-001   6.89636540E-001   9.89650901E-001
   2.20000000E+002   9.90500959E-001   6.89636926E-001   9.90500922E-001
   2.25000000E+002   9.91115198E-001   6.89637262E-001   9.91115165E-001
   2.30000000E+002   9.91712778E-001   6.89637556E-001   9.91712748E-001
   2.35000000E+002   9.92363907E-001   6.89637815E-001   9.92363881E-001
   2.40000000E+002   9.92925875E-001   6.89638042E-001   9.92925851E-001
   2.45000000E+002   9.93471560E-001   6.89638243E-001   9.93471538E-001
