# ./jetvheto -in n3lo-fixed-order/H125-LHC13-R04-mb-475-mt-1725-xmur050-xmuf025-log.fxd -xQ 0.25 -out benchmarks-n3lo-smallR/H125-LHC13-R04-mb-475-mt-1725-xmur050-xmuf025-xQ025-N3LO+NNLLb.R0-0.5.res -scheme b -order 2 -ptmax 500.01 -fixed_order 3 -small-r -loop-mass t+b -R0 0.5
# process = H    
# collider = pp   
# rts =  13000.000
# M   =    125.000
# muR =     62.500
# muF =     31.250
# Q   =     31.250
# p   =      5.000
# include_c1_squared =   F
# loop_mass  = t+b 
# alphas(MZ) =    0.11800
# alphas(M) =    0.11264
# alphas(muR) =    0.12516
# Rjet =      0.400
# order = NNLL
# pdf name and set = PDF4LHC15_nnlo_mc.LHgrid,    0
# matching scheme = b
# total cross sections [nb] at LO, NLOdiff, NNLOdiff, N3LOdiff =     0.012926    0.020318    0.009723    0.001827
#----------------------------------------------------------------------
# the lines that follow give the jet-veto efficiencies as a function of pt
#         pt            matched eff      resummed eff     fixed-order eff
   2.00000000E+001   4.20943443E-001   4.61565522E-001   4.15980545E-001
   2.50000000E+001   5.10230201E-001   5.30036384E-001   5.07800100E-001
   3.00000000E+001   5.81891978E-001   5.70885681E-001   5.80656478E-001
   3.50000000E+001   6.40402616E-001   5.93333960E-001   6.39756651E-001
   4.00000000E+001   6.89304091E-001   6.05197213E-001   6.88975344E-001
   4.50000000E+001   7.30771572E-001   6.11488944E-001   7.30606525E-001
   5.00000000E+001   7.65491481E-001   6.14923035E-001   7.65403404E-001
   5.50000000E+001   7.95814147E-001   6.16871025E-001   7.95769940E-001
   6.00000000E+001   8.20977604E-001   6.18020970E-001   8.20952172E-001
   6.50000000E+001   8.41300981E-001   6.18725811E-001   8.41282612E-001
   7.00000000E+001   8.60368003E-001   6.19172821E-001   8.60356605E-001
   7.50000000E+001   8.76591711E-001   6.19465088E-001   8.76584241E-001
   8.00000000E+001   8.90181402E-001   6.19661432E-001   8.90175714E-001
   8.50000000E+001   9.02719683E-001   6.19796555E-001   9.02715631E-001
   9.00000000E+001   9.13666370E-001   6.19891569E-001   9.13663383E-001
   9.50000000E+001   9.21897297E-001   6.19959679E-001   9.21894582E-001
   1.00000000E+002   9.30779845E-001   6.20009358E-001   9.30777862E-001
   1.05000000E+002   9.37706211E-001   6.20046165E-001   9.37704516E-001
   1.10000000E+002   9.44695894E-001   6.20073825E-001   9.44694592E-001
   1.15000000E+002   9.50721399E-001   6.20094881E-001   9.50720349E-001
   1.20000000E+002   9.55559151E-001   6.20111102E-001   9.55558232E-001
   1.25000000E+002   9.59756278E-001   6.20123733E-001   9.59755469E-001
   1.30000000E+002   9.64021023E-001   6.20133668E-001   9.64020346E-001
   1.35000000E+002   9.67558405E-001   6.20141555E-001   9.67557819E-001
   1.40000000E+002   9.70866261E-001   6.20147870E-001   9.70865759E-001
   1.45000000E+002   9.73929474E-001   6.20152966E-001   9.73929043E-001
   1.50000000E+002   9.76552259E-001   6.20157109E-001   9.76551883E-001
   1.55000000E+002   9.78957204E-001   6.20160501E-001   9.78956876E-001
   1.60000000E+002   9.81460078E-001   6.20163296E-001   9.81459799E-001
   1.65000000E+002   9.83315974E-001   6.20165613E-001   9.83315727E-001
   1.70000000E+002   9.84871661E-001   6.20167544E-001   9.84871440E-001
   1.75000000E+002   9.86707013E-001   6.20169163E-001   9.86706822E-001
   1.80000000E+002   9.87960846E-001   6.20170527E-001   9.87960674E-001
   1.85000000E+002   9.89386547E-001   6.20171681E-001   9.89386397E-001
   1.90000000E+002   9.90522312E-001   6.20172663E-001   9.90522177E-001
   1.95000000E+002   9.91725328E-001   6.20173501E-001   9.91725209E-001
   2.00000000E+002   9.92593419E-001   6.20174219E-001   9.92593312E-001
   2.05000000E+002   9.93441359E-001   6.20174837E-001   9.93441263E-001
   2.10000000E+002   9.94207169E-001   6.20175372E-001   9.94207082E-001
   2.15000000E+002   9.95058462E-001   6.20175835E-001   9.95058385E-001
   2.20000000E+002   9.95659239E-001   6.20176237E-001   9.95659169E-001
   2.25000000E+002   9.96348679E-001   6.20176589E-001   9.96348616E-001
   2.30000000E+002   9.96847377E-001   6.20176896E-001   9.96847320E-001
   2.35000000E+002   9.97218804E-001   6.20177166E-001   9.97218752E-001
   2.40000000E+002   9.97738118E-001   6.20177404E-001   9.97738071E-001
   2.45000000E+002   9.98160759E-001   6.20177613E-001   9.98160716E-001
