# ./jetvheto -in n3lo-fixed-order/H125-LHC13-R04-heft-xmur050-xmuf050-log.fxd -xQ 0.75 -out benchmarks-n3lo-smallR/H125-LHC13-R04-heft-xmur050-xmuf050-xQ075-N3LO+NNLLb.R0-2.0.res -scheme b -order 2 -ptmax 500.01 -fixed_order 3 -small-r -R0 2.0
# process = H    
# collider = pp   
# rts =  13000.000
# M   =    125.000
# muR =     62.500
# muF =     62.500
# Q   =     93.750
# p   =      5.000
# include_c1_squared =   F
# loop_mass  = none
# alphas(MZ) =    0.11800
# alphas(M) =    0.11264
# alphas(muR) =    0.12516
# Rjet =      0.400
# order = NNLL
# pdf name and set = PDF4LHC15_nnlo_mc.LHgrid,    0
# matching scheme = b
# total cross sections [nb] at LO, NLOdiff, NNLOdiff, N3LOdiff =     0.015055    0.019611    0.008998    0.001413
#----------------------------------------------------------------------
# the lines that follow give the jet-veto efficiencies as a function of pt
#         pt            matched eff      resummed eff     fixed-order eff
   2.00000000E+001   4.94345284E-001   5.79383410E-001   4.32272620E-001
   2.50000000E+001   5.72687853E-001   6.51282224E-001   5.20076688E-001
   3.00000000E+001   6.39388967E-001   7.00989208E-001   5.95188306E-001
   3.50000000E+001   6.92174902E-001   7.35031403E-001   6.54648121E-001
   4.00000000E+001   7.32850430E-001   7.57840978E-001   7.00880952E-001
   4.50000000E+001   7.68564374E-001   7.72509079E-001   7.41355940E-001
   5.00000000E+001   7.96888826E-001   7.81241405E-001   7.73800605E-001
   5.50000000E+001   8.21612181E-001   7.85663840E-001   8.02051238E-001
   6.00000000E+001   8.41654783E-001   7.86993855E-001   8.25176712E-001
   6.50000000E+001   8.60442425E-001   7.86173538E-001   8.46550538E-001
   7.00000000E+001   8.74698739E-001   7.83942107E-001   8.63110860E-001
   7.50000000E+001   8.87534848E-001   7.80876946E-001   8.77894218E-001
   8.00000000E+001   8.99230006E-001   7.77419785E-001   8.91221610E-001
   8.50000000E+001   9.09675593E-001   7.73892522E-001   9.03036791E-001
   9.00000000E+001   9.18978377E-001   7.70513393E-001   9.13482770E-001
   9.50000000E+001   9.26379724E-001   7.67413509E-001   9.21853677E-001
   1.00000000E+002   9.33507106E-001   7.64658167E-001   9.29768082E-001
   1.05000000E+002   9.39192773E-001   7.62265164E-001   9.36111694E-001
   1.10000000E+002   9.44507931E-001   7.60221572E-001   9.41960757E-001
   1.15000000E+002   9.49571188E-001   7.58497073E-001   9.47456202E-001
   1.20000000E+002   9.54175845E-001   7.57053551E-001   9.52413885E-001
   1.25000000E+002   9.57975328E-001   7.55851257E-001   9.56505189E-001
   1.30000000E+002   9.61313007E-001   7.54852632E-001   9.60082213E-001
   1.35000000E+002   9.64695736E-001   7.54023977E-001   9.63658956E-001
   1.40000000E+002   9.67773667E-001   7.53336080E-001   9.66896738E-001
   1.45000000E+002   9.70417462E-001   7.52764220E-001   9.69673261E-001
   1.50000000E+002   9.72475827E-001   7.52287801E-001   9.71842925E-001
   1.55000000E+002   9.74865181E-001   7.51889831E-001   9.74323047E-001
   1.60000000E+002   9.77035036E-001   7.51556382E-001   9.76568926E-001
   1.65000000E+002   9.78345023E-001   7.51276078E-001   9.77944247E-001
   1.70000000E+002   9.80079685E-001   7.51039641E-001   9.79732679E-001
   1.75000000E+002   9.81709320E-001   7.50839508E-001   9.81407724E-001
   1.80000000E+002   9.82960963E-001   7.50669508E-001   9.82698288E-001
   1.85000000E+002   9.84108495E-001   7.50524596E-001   9.83878937E-001
   1.90000000E+002   9.85298801E-001   7.50400643E-001   9.85097366E-001
   1.95000000E+002   9.86397916E-001   7.50294255E-001   9.86220604E-001
   2.00000000E+002   9.87379747E-001   7.50202640E-001   9.87223233E-001
   2.05000000E+002   9.88175117E-001   7.50123490E-001   9.88036656E-001
   2.10000000E+002   9.88984383E-001   7.50054894E-001   9.88861494E-001
   2.15000000E+002   9.89613562E-001   7.49995264E-001   9.89504277E-001
   2.20000000E+002   9.90505693E-001   7.49943273E-001   9.90408081E-001
   2.25000000E+002   9.90990019E-001   7.49897814E-001   9.90902794E-001
   2.30000000E+002   9.91580410E-001   7.49857956E-001   9.91502219E-001
   2.35000000E+002   9.92031486E-001   7.49822915E-001   9.91961268E-001
   2.40000000E+002   9.92517268E-001   7.49792030E-001   9.92454049E-001
   2.45000000E+002   9.93081230E-001   7.49764740E-001   9.93024154E-001
