# ./jetvheto -in n3lo-fixed-order/H125-LHC13-R04-mb-0-mt-1725-xmur100-xmuf100-log.fxd -xQ 0.75 -out benchmarks-n3lo-smallR/H125-LHC13-R04-mb-0-mt-1725-xmur100-xmuf100-xQ075-NNLO+NNLLa.res -scheme a -order 2 -ptmax 500.01 -fixed_order 2 -loop-mass t
# process = H    
# collider = pp   
# rts =  13000.000
# M   =    125.000
# muR =    125.000
# muF =    125.000
# Q   =     93.750
# p   =      5.000
# include_c1_squared =   F
# loop_mass  = t   
# alphas(MZ) =    0.11800
# alphas(M) =    0.11264
# alphas(muR) =    0.11264
# Rjet =      0.400
# order = NNLL
# pdf name and set = PDF4LHC15_nnlo_mc.LHgrid,    0
# matching scheme = a
# total cross sections [nb] at LO, NLOdiff, NNLOdiff, N3LOdiff =     0.013801    0.017514    0.010146    0.003834
#----------------------------------------------------------------------
# the lines that follow give the jet-veto efficiencies as a function of pt
#         pt            matched eff      resummed eff     fixed-order eff
   2.00000000E+001   5.07430018E-001   5.45104179E-001   5.12111256E-001
   2.50000000E+001   5.99198592E-001   6.32352102E-001   5.93117916E-001
   3.00000000E+001   6.70188434E-001   6.94393823E-001   6.55183932E-001
   3.50000000E+001   7.25780598E-001   7.38169022E-001   7.04312652E-001
   4.00000000E+001   7.69724506E-001   7.68635614E-001   7.44112204E-001
   4.50000000E+001   8.04559573E-001   7.89332045E-001   7.76741158E-001
   5.00000000E+001   8.32482734E-001   8.02802870E-001   8.03999724E-001
   5.50000000E+001   8.54922156E-001   8.10935411E-001   8.26956486E-001
   6.00000000E+001   8.73173622E-001   8.15162646E-001   8.46582419E-001
   6.50000000E+001   8.88086602E-001   8.16597987E-001   8.63449624E-001
   7.00000000E+001   9.00287159E-001   8.16115606E-001   8.77952928E-001
   7.50000000E+001   9.10539529E-001   8.14399133E-001   8.90657633E-001
   8.00000000E+001   9.19211981E-001   8.11975495E-001   9.01784587E-001
   8.50000000E+001   9.26577972E-001   8.09235767E-001   9.11498483E-001
   9.00000000E+001   9.33014358E-001   8.06454664E-001   9.20097826E-001
   9.50000000E+001   9.38643774E-001   8.03809080E-001   9.27666371E-001
   1.00000000E+002   9.43695762E-001   8.01399464E-001   9.34417045E-001
   1.05000000E+002   9.48249838E-001   7.99270535E-001   9.40434122E-001
   1.10000000E+002   9.52320151E-001   7.97429717E-001   9.45748990E-001
   1.15000000E+002   9.56093021E-001   7.95861981E-001   9.50569353E-001
   1.20000000E+002   9.59514009E-001   7.94540491E-001   9.54867362E-001
   1.25000000E+002   9.62669170E-001   7.93433980E-001   9.58753493E-001
   1.30000000E+002   9.65575375E-001   7.92511094E-001   9.62267892E-001
   1.35000000E+002   9.68231059E-001   7.91742766E-001   9.65429419E-001
   1.40000000E+002   9.70668537E-001   7.91103277E-001   9.68287981E-001
   1.45000000E+002   9.72945711E-001   7.90570543E-001   9.70915959E-001
   1.50000000E+002   9.74996074E-001   7.90125965E-001   9.73259576E-001
   1.55000000E+002   9.76917715E-001   7.89754080E-001   9.75426757E-001
   1.60000000E+002   9.78690278E-001   7.89442132E-001   9.77405590E-001
   1.65000000E+002   9.80306965E-001   7.89179656E-001   9.79196168E-001
   1.70000000E+002   9.81805492E-001   7.88958085E-001   9.80841717E-001
   1.75000000E+002   9.83159536E-001   7.88770412E-001   9.82320552E-001
   1.80000000E+002   9.84425096E-001   7.88610909E-001   9.83692327E-001
   1.85000000E+002   9.85578505E-001   7.88474883E-001   9.84936490E-001
   1.90000000E+002   9.86653272E-001   7.88358484E-001   9.86089030E-001
   1.95000000E+002   9.87652095E-001   7.88258546E-001   9.87154723E-001
   2.00000000E+002   9.88559783E-001   7.88172462E-001   9.88120114E-001
   2.05000000E+002   9.89411396E-001   7.88098071E-001   9.89021653E-001
   2.10000000E+002   9.90182780E-001   7.88033587E-001   9.89836384E-001
   2.15000000E+002   9.90888286E-001   7.87977520E-001   9.90579634E-001
   2.20000000E+002   9.91552849E-001   7.87928629E-001   9.91277142E-001
   2.25000000E+002   9.92161997E-001   7.87885874E-001   9.91915136E-001
   2.30000000E+002   9.92727470E-001   7.87848382E-001   9.92505931E-001
   2.35000000E+002   9.93259435E-001   7.87815418E-001   9.93060180E-001
   2.40000000E+002   9.93736926E-001   7.87786361E-001   9.93557338E-001
   2.45000000E+002   9.94187302E-001   7.87760684E-001   9.94025107E-001
