# ./jetvheto -in n3lo-fixed-order/H125-LHC13-R04-mb-0-mt-1725-xmur025-xmuf050-log.fxd -xQ 0.0625 -out benchmarks-n3lo-smallR/H125-LHC13-R04-mb-0-mt-1725-xmur025-xmuf050-xQ0625-N3LO+NNLLb.res -scheme b -order 2 -ptmax 500.01 -fixed_order 3 -loop-mass t
# process = H    
# collider = pp   
# rts =  13000.000
# M   =    125.000
# muR =     31.250
# muF =     62.500
# Q   =      7.812
# p   =      5.000
# include_c1_squared =   F
# loop_mass  = t   
# alphas(MZ) =    0.11800
# alphas(M) =    0.11264
# alphas(muR) =    0.14091
# Rjet =      0.400
# order = NNLL
# pdf name and set = PDF4LHC15_nnlo_mc.LHgrid,    0
# matching scheme = b
# total cross sections [nb] at LO, NLOdiff, NNLOdiff, N3LOdiff =     0.019855    0.024744    0.005009   -0.002663
#----------------------------------------------------------------------
# the lines that follow give the jet-veto efficiencies as a function of pt
#         pt            matched eff      resummed eff     fixed-order eff
   2.00000000E+001   4.93021927E-001   3.57320700E-002   4.93187641E-001
   2.50000000E+001   5.71252516E-001   3.58882380E-002   5.71298503E-001
   3.00000000E+001   6.42031722E-001   3.59340029E-002   6.42050719E-001
   3.50000000E+001   6.97792665E-001   3.59505524E-002   6.97801461E-001
   4.00000000E+001   7.39457771E-001   3.59574975E-002   7.39461966E-001
   4.50000000E+001   7.77316584E-001   3.59607532E-002   7.77318921E-001
   5.00000000E+001   8.06797767E-001   3.59624158E-002   8.06799084E-001
   5.50000000E+001   8.32663558E-001   3.59633247E-002   8.32664363E-001
   6.00000000E+001   8.53369223E-001   3.59638498E-002   8.53369721E-001
   6.50000000E+001   8.73493750E-001   3.59641676E-002   8.73494087E-001
   7.00000000E+001   8.87699266E-001   3.59643676E-002   8.87699485E-001
   7.50000000E+001   9.00748891E-001   3.59644977E-002   9.00749041E-001
   8.00000000E+001   9.12762542E-001   3.59645847E-002   9.12762648E-001
   8.50000000E+001   9.23472752E-001   3.59646445E-002   9.23472829E-001
   9.00000000E+001   9.32919686E-001   3.59646865E-002   9.32919743E-001
   9.50000000E+001   9.39931647E-001   3.59647166E-002   9.39931688E-001
   1.00000000E+002   9.46971189E-001   3.59647385E-002   9.46971221E-001
   1.05000000E+002   9.52095333E-001   3.59647547E-002   9.52095357E-001
   1.10000000E+002   9.56921623E-001   3.59647669E-002   9.56921641E-001
   1.15000000E+002   9.61710856E-001   3.59647761E-002   9.61710870E-001
   1.20000000E+002   9.66032239E-001   3.59647833E-002   9.66032250E-001
   1.25000000E+002   9.69362083E-001   3.59647888E-002   9.69362092E-001
   1.30000000E+002   9.72173652E-001   3.59647932E-002   9.72173659E-001
   1.35000000E+002   9.75222981E-001   3.59647967E-002   9.75222987E-001
   1.40000000E+002   9.78005738E-001   3.59647995E-002   9.78005743E-001
   1.45000000E+002   9.80340153E-001   3.59648017E-002   9.80340157E-001
   1.50000000E+002   9.81868644E-001   3.59648035E-002   9.81868648E-001
   1.55000000E+002   9.84076778E-001   3.59648050E-002   9.84076781E-001
   1.60000000E+002   9.86032593E-001   3.59648063E-002   9.86032595E-001
   1.65000000E+002   9.86768934E-001   3.59648073E-002   9.86768936E-001
   1.70000000E+002   9.88261878E-001   3.59648081E-002   9.88261879E-001
   1.75000000E+002   9.89657203E-001   3.59648088E-002   9.89657204E-001
   1.80000000E+002   9.90565297E-001   3.59648094E-002   9.90565298E-001
   1.85000000E+002   9.91392270E-001   3.59648099E-002   9.91392271E-001
   1.90000000E+002   9.92351954E-001   3.59648104E-002   9.92351955E-001
   1.95000000E+002   9.93251518E-001   3.59648107E-002   9.93251519E-001
   2.00000000E+002   9.94021371E-001   3.59648111E-002   9.94021372E-001
   2.05000000E+002   9.94528357E-001   3.59648113E-002   9.94528357E-001
   2.10000000E+002   9.95117637E-001   3.59648116E-002   9.95117637E-001
   2.15000000E+002   9.95466264E-001   3.59648118E-002   9.95466264E-001
   2.20000000E+002   9.96272514E-001   3.59648119E-002   9.96272514E-001
   2.25000000E+002   9.96491501E-001   3.59648121E-002   9.96491502E-001
   2.30000000E+002   9.96876945E-001   3.59648122E-002   9.96876945E-001
   2.35000000E+002   9.97097844E-001   3.59648124E-002   9.97097844E-001
   2.40000000E+002   9.97398463E-001   3.59648125E-002   9.97398463E-001
   2.45000000E+002   9.97849475E-001   3.59648126E-002   9.97849475E-001
