# ./jetvheto -in n3lo-fixed-order/H125-LHC13-R04-mb-475-mt-1725-xmur050-xmuf100-log.fxd -xQ 0.5 -out benchmarks-n3lo-smallR/H125-LHC13-R04-mb-475-mt-1725-xmur050-xmuf100-xQ050-NNLO+NNLLb.R0-1.0.res -scheme b -order 2 -ptmax 500.01 -fixed_order 2 -small-r -loop-mass t+b -R0 1.0
# process = H    
# collider = pp   
# rts =  13000.000
# M   =    125.000
# muR =     62.500
# muF =    125.000
# Q   =     62.500
# p   =      5.000
# include_c1_squared =   F
# loop_mass  = t+b 
# alphas(MZ) =    0.11800
# alphas(M) =    0.11264
# alphas(muR) =    0.12516
# Rjet =      0.400
# order = NNLL
# pdf name and set = PDF4LHC15_nnlo_mc.LHgrid,    0
# matching scheme = b
# total cross sections [nb] at LO, NLOdiff, NNLOdiff, N3LOdiff =     0.015023    0.020252    0.008553    0.000949
#----------------------------------------------------------------------
# the lines that follow give the jet-veto efficiencies as a function of pt
#         pt            matched eff      resummed eff     fixed-order eff
   2.00000000E+001   4.12673081E-001   4.90306468E-001   3.20313286E-001
   2.50000000E+001   4.96560670E-001   5.63033417E-001   4.29278925E-001
   3.00000000E+001   5.64903406E-001   6.13827421E-001   5.14383374E-001
   3.50000000E+001   6.21223026E-001   6.48852490E-001   5.82581444E-001
   4.00000000E+001   6.67913126E-001   6.72507320E-001   6.38164221E-001
   4.50000000E+001   7.07074389E-001   6.88022147E-001   6.84150076E-001
   5.00000000E+001   7.40322704E-001   6.97834833E-001   7.22713547E-001
   5.50000000E+001   7.68706354E-001   7.03797319E-001   7.55241710E-001
   6.00000000E+001   7.93449451E-001   7.07283171E-001   7.83192109E-001
   6.50000000E+001   8.15063497E-001   7.09256125E-001   8.07260822E-001
   7.00000000E+001   8.33973180E-001   7.10346723E-001   8.28031068E-001
   7.50000000E+001   8.50636696E-001   7.10941046E-001   8.46095587E-001
   8.00000000E+001   8.65469105E-001   7.11262944E-001   8.61978585E-001
   8.50000000E+001   8.78500775E-001   7.11437147E-001   8.75799202E-001
   9.00000000E+001   8.90231762E-001   7.11531628E-001   8.88124135E-001
   9.50000000E+001   9.00592734E-001   7.11582993E-001   8.98934980E-001
   1.00000000E+002   9.09843325E-001   7.11610911E-001   9.08528436E-001
   1.05000000E+002   9.18154998E-001   7.11625993E-001   9.17103329E-001
   1.10000000E+002   9.25499038E-001   7.11634005E-001   9.24651250E-001
   1.15000000E+002   9.32174081E-001   7.11638108E-001   9.31485289E-001
   1.20000000E+002   9.38082114E-001   7.11640054E-001   9.37518444E-001
   1.25000000E+002   9.43490083E-001   7.11640817E-001   9.43025509E-001
   1.30000000E+002   9.48345584E-001   7.11640945E-001   9.47960161E-001
   1.35000000E+002   9.52764655E-001   7.11640747E-001   9.52442895E-001
   1.40000000E+002   9.56699841E-001   7.11640393E-001   9.56429641E-001
   1.45000000E+002   9.60363346E-001   7.11639981E-001   9.60135174E-001
   1.50000000E+002   9.63602218E-001   7.11639562E-001   9.63408528E-001
   1.55000000E+002   9.66596713E-001   7.11639162E-001   9.66431468E-001
   1.60000000E+002   9.69316543E-001   7.11638793E-001   9.69174914E-001
   1.65000000E+002   9.71786228E-001   7.11638461E-001   9.71664297E-001
   1.70000000E+002   9.74058308E-001   7.11638166E-001   9.73952895E-001
   1.75000000E+002   9.76097875E-001   7.11637906E-001   9.76006381E-001
   1.80000000E+002   9.77980715E-001   7.11637677E-001   9.77901002E-001
   1.85000000E+002   9.79690346E-001   7.11637477E-001   9.79620647E-001
   1.90000000E+002   9.81267072E-001   7.11637303E-001   9.81205921E-001
   1.95000000E+002   9.82741541E-001   7.11637150E-001   9.82687714E-001
   2.00000000E+002   9.84068573E-001   7.11637016E-001   9.84021048E-001
   2.05000000E+002   9.85304671E-001   7.11636900E-001   9.85262585E-001
   2.10000000E+002   9.86426978E-001   7.11636797E-001   9.86389604E-001
   2.15000000E+002   9.87433412E-001   7.11636708E-001   9.87400133E-001
   2.20000000E+002   9.88388500E-001   7.11636629E-001   9.88358791E-001
   2.25000000E+002   9.89258824E-001   7.11636559E-001   9.89232237E-001
   2.30000000E+002   9.90060978E-001   7.11636498E-001   9.90037128E-001
   2.35000000E+002   9.90815885E-001   7.11636444E-001   9.90794442E-001
   2.40000000E+002   9.91486705E-001   7.11636396E-001   9.91467385E-001
   2.45000000E+002   9.92125229E-001   7.11636354E-001   9.92107784E-001
