# ./jetvheto -in n3lo-fixed-order/H125-LHC13-R04-mb-0-mt-1725-xmur100-xmuf100-log.fxd -xQ 0.5 -out benchmarks-n3lo-smallR/H125-LHC13-R04-mb-0-mt-1725-xmur100-xmuf100-xQ050-N3LO+NNLLb.R0-2.0.res -scheme b -order 2 -ptmax 500.01 -small-r -fixed_order 3 -loop-mass t -R0 2.0
# process = H    
# collider = pp   
# rts =  13000.000
# M   =    125.000
# muR =    125.000
# muF =    125.000
# Q   =     62.500
# p   =      5.000
# include_c1_squared =   F
# loop_mass  = t   
# alphas(MZ) =    0.11800
# alphas(M) =    0.11264
# alphas(muR) =    0.11264
# Rjet =      0.400
# order = NNLL
# pdf name and set = PDF4LHC15_nnlo_mc.LHgrid,    0
# matching scheme = b
# total cross sections [nb] at LO, NLOdiff, NNLOdiff, N3LOdiff =     0.013801    0.017514    0.010146    0.003834
#----------------------------------------------------------------------
# the lines that follow give the jet-veto efficiencies as a function of pt
#         pt            matched eff      resummed eff     fixed-order eff
   2.00000000E+001   4.56073634E-001   5.33568009E-001   4.21593782E-001
   2.50000000E+001   5.39049614E-001   6.14027396E-001   5.13960990E-001
   3.00000000E+001   6.09254596E-001   6.70849634E-001   5.91015610E-001
   3.50000000E+001   6.64531961E-001   7.10496251E-001   6.50645918E-001
   4.00000000E+001   7.09564320E-001   7.37632918E-001   6.98836983E-001
   4.50000000E+001   7.46250805E-001   7.55719478E-001   7.37928057E-001
   5.00000000E+001   7.77458699E-001   7.67391299E-001   7.71030473E-001
   5.50000000E+001   8.04214605E-001   7.74670273E-001   7.99275639E-001
   6.00000000E+001   8.26843594E-001   7.79073182E-001   8.23059681E-001
   6.50000000E+001   8.47134360E-001   7.81678817E-001   8.44243758E-001
   7.00000000E+001   8.64280608E-001   7.83204922E-001   8.62070819E-001
   7.50000000E+001   8.78619967E-001   7.84100315E-001   8.76925464E-001
   8.00000000E+001   8.91272735E-001   7.84632248E-001   8.89967148E-001
   8.50000000E+001   9.02740520E-001   7.84954747E-001   9.01728487E-001
   9.00000000E+001   9.12538219E-001   7.85155357E-001   9.11747759E-001
   9.50000000E+001   9.21531815E-001   7.85283740E-001   9.20909613E-001
   1.00000000E+002   9.29073206E-001   7.85368326E-001   9.28579537E-001
   1.05000000E+002   9.35849486E-001   7.85425657E-001   9.35454626E-001
   1.10000000E+002   9.41946954E-001   7.85465565E-001   9.41628668E-001
   1.15000000E+002   9.47435680E-001   7.85494035E-001   9.47177133E-001
   1.20000000E+002   9.52208400E-001   7.85514800E-001   9.51996886E-001
   1.25000000E+002   9.56348176E-001   7.85530247E-001   9.56173934E-001
   1.30000000E+002   9.60500805E-001   7.85541943E-001   9.60356305E-001
   1.35000000E+002   9.64129023E-001   7.85550939E-001   9.64008440E-001
   1.40000000E+002   9.67193187E-001   7.85557954E-001   9.67091995E-001
   1.45000000E+002   9.70120313E-001   7.85563493E-001   9.70034899E-001
   1.50000000E+002   9.72599954E-001   7.85567915E-001   9.72527497E-001
   1.55000000E+002   9.75274240E-001   7.85571481E-001   9.75212455E-001
   1.60000000E+002   9.77094029E-001   7.85574381E-001   9.77041107E-001
   1.65000000E+002   9.79043586E-001   7.85576760E-001   9.78998050E-001
   1.70000000E+002   9.80748943E-001   7.85578725E-001   9.80709596E-001
   1.75000000E+002   9.82404756E-001   7.85580360E-001   9.82370623E-001
   1.80000000E+002   9.83924922E-001   7.85581728E-001   9.83895197E-001
   1.85000000E+002   9.85290501E-001   7.85582880E-001   9.85264523E-001
   1.90000000E+002   9.86248246E-001   7.85583855E-001   9.86225466E-001
   1.95000000E+002   9.87476540E-001   7.85584683E-001   9.87456496E-001
   2.00000000E+002   9.88518796E-001   7.85585392E-001   9.88501106E-001
   2.05000000E+002   9.89415625E-001   7.85585999E-001   9.89399966E-001
   2.10000000E+002   9.90218016E-001   7.85586523E-001   9.90204115E-001
   2.15000000E+002   9.91108092E-001   7.85586976E-001   9.91095719E-001
   2.20000000E+002   9.91752847E-001   7.85587369E-001   9.91741805E-001
   2.25000000E+002   9.92432189E-001   7.85587711E-001   9.92422310E-001
   2.30000000E+002   9.93065461E-001   7.85588010E-001   9.93056602E-001
   2.35000000E+002   9.93651466E-001   7.85588273E-001   9.93643503E-001
   2.40000000E+002   9.94048938E-001   7.85588503E-001   9.94041766E-001
   2.45000000E+002   9.94581868E-001   7.85588706E-001   9.94575393E-001
