# ./jetvheto -in n3lo-fixed-order/H125-LHC13-R04-mb-0-mt-1725-xmur025-xmuf050-log.fxd -xQ 0.5 -out benchmarks-n3lo-smallR/H125-LHC13-R04-mb-0-mt-1725-xmur025-xmuf050-xQ050-NNLO+NNLLb.R0-0.5.res -scheme b -order 2 -ptmax 500.01 -small-r -fixed_order 2 -loop-mass t -R0 0.5
# process = H    
# collider = pp   
# rts =  13000.000
# M   =    125.000
# muR =     31.250
# muF =     62.500
# Q   =     62.500
# p   =      5.000
# include_c1_squared =   F
# loop_mass  = t   
# alphas(MZ) =    0.11800
# alphas(M) =    0.11264
# alphas(muR) =    0.14091
# Rjet =      0.400
# order = NNLL
# pdf name and set = PDF4LHC15_nnlo_mc.LHgrid,    0
# matching scheme = b
# total cross sections [nb] at LO, NLOdiff, NNLOdiff, N3LOdiff =     0.019855    0.024744    0.005009   -0.002663
#----------------------------------------------------------------------
# the lines that follow give the jet-veto efficiencies as a function of pt
#         pt            matched eff      resummed eff     fixed-order eff
   2.00000000E+001   4.58253995E-001   4.91252784E-001   3.69272721E-001
   2.50000000E+001   5.40550636E-001   5.61066238E-001   4.69726360E-001
   3.00000000E+001   6.05775740E-001   6.09229997E-001   5.49511805E-001
   3.50000000E+001   6.58415210E-001   6.42029708E-001   6.13864488E-001
   4.00000000E+001   7.01533377E-001   6.63883766E-001   6.66517199E-001
   4.50000000E+001   7.37442906E-001   6.77974866E-001   7.10176284E-001
   5.00000000E+001   7.68105582E-001   6.86686850E-001   7.47057362E-001
   5.50000000E+001   7.94042950E-001   6.91820961E-001   7.77941942E-001
   6.00000000E+001   8.16634329E-001   6.94698751E-001   8.04372457E-001
   6.50000000E+001   8.36456171E-001   6.96231587E-001   8.27134891E-001
   7.00000000E+001   8.53946679E-001   6.97006165E-001   8.46853484E-001
   7.50000000E+001   8.69230875E-001   6.97374075E-001   8.63811915E-001
   8.00000000E+001   8.82853372E-001   6.97533293E-001   8.78688651E-001
   8.50000000E+001   8.94981526E-001   6.97589827E-001   8.91757209E-001
   9.00000000E+001   9.05768416E-001   6.97598519E-001   9.03252169E-001
   9.50000000E+001   9.15239174E-001   6.97586737E-001   9.13259014E-001
   1.00000000E+002   9.23801328E-001   6.97567682E-001   9.22229539E-001
   1.05000000E+002   9.31294652E-001   6.97547444E-001   9.30036845E-001
   1.10000000E+002   9.38028683E-001   6.97528616E-001   9.37014025E-001
   1.15000000E+002   9.44063265E-001   6.97512111E-001   9.43238345E-001
   1.20000000E+002   9.49493297E-001   6.97498076E-001   9.48817676E-001
   1.25000000E+002   9.54422281E-001   6.97486331E-001   9.53865028E-001
   1.30000000E+002   9.58752511E-001   6.97476580E-001   9.58289911E-001
   1.35000000E+002   9.62677598E-001   6.97468515E-001   9.62291205E-001
   1.40000000E+002   9.66239648E-001   6.97461846E-001   9.65914981E-001
   1.45000000E+002   9.69451855E-001   6.97456327E-001   9.69177523E-001
   1.50000000E+002   9.72396349E-001   6.97451748E-001   9.72163335E-001
   1.55000000E+002   9.75030180E-001   6.97447938E-001   9.74831295E-001
   1.60000000E+002   9.77415784E-001   6.97444758E-001   9.77245237E-001
   1.65000000E+002   9.79555976E-001   6.97442092E-001   9.79409086E-001
   1.70000000E+002   9.81526062E-001   6.97439850E-001   9.81399018E-001
   1.75000000E+002   9.83316943E-001   6.97437956E-001   9.83206634E-001
   1.80000000E+002   9.84906971E-001   6.97436352E-001   9.84810833E-001
   1.85000000E+002   9.86377380E-001   6.97434986E-001   9.86293290E-001
   1.90000000E+002   9.87721085E-001   6.97433820E-001   9.87647285E-001
   1.95000000E+002   9.88933486E-001   6.97432820E-001   9.88868507E-001
   2.00000000E+002   9.90037463E-001   6.97431960E-001   9.89980075E-001
   2.05000000E+002   9.91051081E-001   6.97431219E-001   9.91000249E-001
   2.10000000E+002   9.91944398E-001   6.97430576E-001   9.91899248E-001
   2.15000000E+002   9.92795631E-001   6.97430018E-001   9.92755418E-001
   2.20000000E+002   9.93570096E-001   6.97429532E-001   9.93534190E-001
   2.25000000E+002   9.94238435E-001   6.97429107E-001   9.94206295E-001
   2.30000000E+002   9.94917853E-001   6.97428735E-001   9.94889017E-001
   2.35000000E+002   9.95483976E-001   6.97428407E-001   9.95458046E-001
   2.40000000E+002   9.96018621E-001   6.97428119E-001   9.95995254E-001
   2.45000000E+002   9.96506742E-001   6.97427865E-001   9.96485640E-001
