# ./jetvheto -in n3lo-fixed-order/H125-LHC13-R04-heft-xmur100-xmuf100-log.fxd -xQ 0.50 -out benchmarks-n3lo-smallR/H125-LHC13-R04-heft-xmur100-xmuf100-xQ050-NNLO+NNLLa.res -scheme a -order 2 -ptmax 500.01 -fixed_order 2
# process = H    
# collider = pp   
# rts =  13000.000
# M   =    125.000
# muR =    125.000
# muF =    125.000
# Q   =     62.500
# p   =      5.000
# include_c1_squared =   F
# loop_mass  = none
# alphas(MZ) =    0.11800
# alphas(M) =    0.11264
# alphas(muR) =    0.11264
# Rjet =      0.400
# order = NNLL
# pdf name and set = PDF4LHC15_nnlo_mc.LHgrid,    0
# matching scheme = a
# total cross sections [nb] at LO, NLOdiff, NNLOdiff, N3LOdiff =     0.012945    0.016716    0.010146    0.003834
#----------------------------------------------------------------------
# the lines that follow give the jet-veto efficiencies as a function of pt
#         pt            matched eff      resummed eff     fixed-order eff
   2.00000000E+001   4.83572893E-001   5.14030119E-001   5.03121755E-001
   2.50000000E+001   5.72504027E-001   5.96589190E-001   5.84489186E-001
   3.00000000E+001   6.41773189E-001   6.55180244E-001   6.47024325E-001
   3.50000000E+001   6.96103153E-001   6.96241340E-001   6.96432698E-001
   4.00000000E+001   7.39286634E-001   7.24482712E-001   7.36537087E-001
   4.50000000E+001   7.73825177E-001   7.43418158E-001   7.69498888E-001
   5.00000000E+001   8.01879085E-001   7.55732524E-001   7.97057559E-001
   5.50000000E+001   8.24934994E-001   7.63490588E-001   8.20296043E-001
   6.00000000E+001   8.44284423E-001   7.68245729E-001   8.40179538E-001
   6.50000000E+001   8.60763045E-001   7.71107434E-001   8.57311575E-001
   7.00000000E+001   8.74881822E-001   7.72818399E-001   8.72069843E-001
   7.50000000E+001   8.87206051E-001   7.73846933E-001   8.84956099E-001
   8.00000000E+001   8.98021123E-001   7.74474943E-001   8.96237121E-001
   8.50000000E+001   9.07513207E-001   7.74867143E-001   9.06102675E-001
   9.00000000E+001   9.15996613E-001   7.75118710E-001   9.14880120E-001
   9.50000000E+001   9.23491099E-001   7.75284692E-001   9.22604114E-001
   1.00000000E+002   9.30181382E-001   7.75397300E-001   9.29473021E-001
   1.05000000E+002   9.36172326E-001   7.75475733E-001   9.35603161E-001
   1.10000000E+002   9.41513704E-001   7.75531696E-001   9.41053390E-001
   1.15000000E+002   9.46350732E-001   7.75572504E-001   9.45975962E-001
   1.20000000E+002   9.50688079E-001   7.75602843E-001   9.50380922E-001
   1.25000000E+002   9.54607443E-001   7.75625789E-001   9.54354081E-001
   1.30000000E+002   9.58144255E-001   7.75643409E-001   9.57933958E-001
   1.35000000E+002   9.61371481E-001   7.75657125E-001   9.61195880E-001
   1.40000000E+002   9.64257707E-001   7.75667930E-001   9.64110237E-001
   1.45000000E+002   9.66935523E-001   7.75676535E-001   9.66811003E-001
   1.50000000E+002   9.69322342E-001   7.75683454E-001   9.69216654E-001
   1.55000000E+002   9.71515343E-001   7.75689067E-001   9.71425199E-001
   1.60000000E+002   9.73536338E-001   7.75693657E-001   9.73459094E-001
   1.65000000E+002   9.75368340E-001   7.75697437E-001   9.75301855E-001
   1.70000000E+002   9.77068060E-001   7.75700572E-001   9.77010596E-001
   1.75000000E+002   9.78604209E-001   7.75703188E-001   9.78554343E-001
   1.80000000E+002   9.80034132E-001   7.75705383E-001   9.79990696E-001
   1.85000000E+002   9.81334398E-001   7.75707235E-001   9.81296426E-001
   1.90000000E+002   9.82537235E-001   7.75708805E-001   9.82503927E-001
   1.95000000E+002   9.83667600E-001   7.75710143E-001   9.83638287E-001
   2.00000000E+002   9.84701085E-001   7.75711287E-001   9.84675207E-001
   2.05000000E+002   9.85661999E-001   7.75712271E-001   9.85639085E-001
   2.10000000E+002   9.86543365E-001   7.75713119E-001   9.86523019E-001
   2.15000000E+002   9.87349096E-001   7.75713853E-001   9.87330981E-001
   2.20000000E+002   9.88108389E-001   7.75714491E-001   9.88092219E-001
   2.25000000E+002   9.88809453E-001   7.75715047E-001   9.88794983E-001
   2.30000000E+002   9.89464041E-001   7.75715533E-001   9.89451061E-001
   2.35000000E+002   9.90087476E-001   7.75715959E-001   9.90075806E-001
   2.40000000E+002   9.90651369E-001   7.75716334E-001   9.90640855E-001
   2.45000000E+002   9.91184448E-001   7.75716665E-001   9.91174955E-001
