# ./jetvheto -in n3lo-fixed-order/H125-LHC13-R04-mb-0-mt-1725-xmur100-xmuf100-log.fxd -xQ 0.333 -out benchmarks-n3lo-smallR/H125-LHC13-R04-mb-0-mt-1725-xmur100-xmuf100-xQ033-NNLO+NNLLa.R0-1.5.res -scheme a -order 2 -ptmax 500.01 -small-r -fixed_order 2 -loop-mass t -R0 1.5
# process = H    
# collider = pp   
# rts =  13000.000
# M   =    125.000
# muR =    125.000
# muF =    125.000
# Q   =     41.625
# p   =      5.000
# include_c1_squared =   F
# loop_mass  = t   
# alphas(MZ) =    0.11800
# alphas(M) =    0.11264
# alphas(muR) =    0.11264
# Rjet =      0.400
# order = NNLL
# pdf name and set = PDF4LHC15_nnlo_mc.LHgrid,    0
# matching scheme = a
# total cross sections [nb] at LO, NLOdiff, NNLOdiff, N3LOdiff =     0.013801    0.017514    0.010146    0.003834
#----------------------------------------------------------------------
# the lines that follow give the jet-veto efficiencies as a function of pt
#         pt            matched eff      resummed eff     fixed-order eff
   2.00000000E+001   4.94906360E-001   5.29719772E-001   5.12111256E-001
   2.50000000E+001   5.81167412E-001   6.09164024E-001   5.93117916E-001
   3.00000000E+001   6.47754539E-001   6.62745956E-001   6.55183932E-001
   3.50000000E+001   6.99953204E-001   6.97380201E-001   7.04312652E-001
   4.00000000E+001   7.41578498E-001   7.18834594E-001   7.44112204E-001
   4.50000000E+001   7.75231334E-001   7.31736520E-001   7.76741158E-001
   5.00000000E+001   8.03059526E-001   7.39418699E-001   8.03999724E-001
   5.50000000E+001   8.26343947E-001   7.44028753E-001   8.26956486E-001
   6.00000000E+001   8.46166320E-001   7.46848622E-001   8.46582419E-001
   6.50000000E+001   8.63157638E-001   7.48616322E-001   8.63449624E-001
   7.00000000E+001   8.77742705E-001   7.49753707E-001   8.77952928E-001
   7.50000000E+001   8.90503040E-001   7.50504434E-001   8.90657633E-001
   8.00000000E+001   9.01668803E-001   7.51011979E-001   9.01784587E-001
   8.50000000E+001   9.11410485E-001   7.51362790E-001   9.11498483E-001
   9.00000000E+001   9.20029955E-001   7.51610218E-001   9.20097826E-001
   9.50000000E+001   9.27613409E-001   7.51787970E-001   9.27666371E-001
   1.00000000E+002   9.34375268E-001   7.51917823E-001   9.34417045E-001
   1.05000000E+002   9.40400831E-001   7.52014140E-001   9.40434122E-001
   1.10000000E+002   9.45722223E-001   7.52086584E-001   9.45748990E-001
   1.15000000E+002   9.50547643E-001   7.52141769E-001   9.50569353E-001
   1.20000000E+002   9.54849619E-001   7.52184301E-001   9.54867362E-001
   1.25000000E+002   9.58738883E-001   7.52217435E-001   9.58753493E-001
   1.30000000E+002   9.62255782E-001   7.52243504E-001   9.62267892E-001
   1.35000000E+002   9.65419313E-001   7.52264204E-001   9.65429419E-001
   1.40000000E+002   9.68279502E-001   7.52280780E-001   9.68287981E-001
   1.45000000E+002   9.70908800E-001   7.52294160E-001   9.70915959E-001
   1.50000000E+002   9.73253504E-001   7.52305039E-001   9.73259576E-001
   1.55000000E+002   9.75421580E-001   7.52313947E-001   9.75426757E-001
   1.60000000E+002   9.77401155E-001   7.52321286E-001   9.77405590E-001
   1.65000000E+002   9.79192352E-001   7.52327371E-001   9.79196168E-001
   1.70000000E+002   9.80838419E-001   7.52332444E-001   9.80841717E-001
   1.75000000E+002   9.82317692E-001   7.52336697E-001   9.82320552E-001
   1.80000000E+002   9.83689836E-001   7.52340279E-001   9.83692327E-001
   1.85000000E+002   9.84934313E-001   7.52343311E-001   9.84936490E-001
   1.90000000E+002   9.86087121E-001   7.52345889E-001   9.86089030E-001
   1.95000000E+002   9.87153043E-001   7.52348091E-001   9.87154723E-001
   2.00000000E+002   9.88118631E-001   7.52349979E-001   9.88120114E-001
   2.05000000E+002   9.89020340E-001   7.52351603E-001   9.89021653E-001
   2.10000000E+002   9.89835219E-001   7.52353006E-001   9.89836384E-001
   2.15000000E+002   9.90578597E-001   7.52354223E-001   9.90579634E-001
   2.20000000E+002   9.91276217E-001   7.52355281E-001   9.91277142E-001
   2.25000000E+002   9.91914308E-001   7.52356204E-001   9.91915136E-001
   2.30000000E+002   9.92505189E-001   7.52357012E-001   9.92505931E-001
   2.35000000E+002   9.93059513E-001   7.52357721E-001   9.93060180E-001
   2.40000000E+002   9.93556738E-001   7.52358345E-001   9.93557338E-001
   2.45000000E+002   9.94024565E-001   7.52358896E-001   9.94025107E-001
