# ./jetvheto -in n3lo-fixed-order/H125-LHC13-R04-mb-0-mt-1725-xmur100-xmuf050-log.fxd -xQ 0.25 -out benchmarks-n3lo-smallR/H125-LHC13-R04-mb-0-mt-1725-xmur100-xmuf050-xQ025-NNLO+NNLLa.res -scheme a -order 2 -ptmax 500.01 -fixed_order 2 -loop-mass t
# process = H    
# collider = pp   
# rts =  13000.000
# M   =    125.000
# muR =    125.000
# muF =     62.500
# Q   =     31.250
# p   =      5.000
# include_c1_squared =   F
# loop_mass  = t   
# alphas(MZ) =    0.11800
# alphas(M) =    0.11264
# alphas(muR) =    0.11264
# Rjet =      0.400
# order = NNLL
# pdf name and set = PDF4LHC15_nnlo_mc.LHgrid,    0
# matching scheme = a
# total cross sections [nb] at LO, NLOdiff, NNLOdiff, N3LOdiff =     0.012997    0.017347    0.010424    0.004163
#----------------------------------------------------------------------
# the lines that follow give the jet-veto efficiencies as a function of pt
#         pt            matched eff      resummed eff     fixed-order eff
   2.00000000E+001   4.85507928E-001   5.31778935E-001   5.05383673E-001
   2.50000000E+001   5.73398667E-001   6.06785665E-001   5.86599989E-001
   3.00000000E+001   6.40883801E-001   6.51228259E-001   6.49001744E-001
   3.50000000E+001   6.93641324E-001   6.75540935E-001   6.98540679E-001
   4.00000000E+001   7.35662755E-001   6.88353598E-001   7.38658449E-001
   4.50000000E+001   7.69840206E-001   6.95137344E-001   7.71720875E-001
   5.00000000E+001   7.98392802E-001   6.98836416E-001   7.99609682E-001
   5.50000000E+001   8.22052764E-001   7.00933558E-001   8.22862779E-001
   6.00000000E+001   8.42286964E-001   7.02171150E-001   8.42840818E-001
   6.50000000E+001   8.59694298E-001   7.02929563E-001   8.60082325E-001
   7.00000000E+001   8.74732468E-001   7.03410489E-001   8.75010333E-001
   7.50000000E+001   8.87745158E-001   7.03724907E-001   8.87947964E-001
   8.00000000E+001   8.99172625E-001   7.03936119E-001   8.99323286E-001
   8.50000000E+001   9.09251146E-001   7.04081470E-001   9.09364851E-001
   9.00000000E+001   9.18137702E-001   7.04183673E-001   9.18224745E-001
   9.50000000E+001   9.25949175E-001   7.04256936E-001   9.26016654E-001
   1.00000000E+002   9.32977580E-001   7.04310372E-001   9.33030521E-001
   1.05000000E+002   9.39144563E-001   7.04349962E-001   9.39186536E-001
   1.10000000E+002   9.44665436E-001   7.04379713E-001   9.44699045E-001
   1.15000000E+002   9.49635288E-001   7.04402362E-001   9.49662445E-001
   1.20000000E+002   9.54116372E-001   7.04419809E-001   9.54138501E-001
   1.25000000E+002   9.58194625E-001   7.04433395E-001   9.58212797E-001
   1.30000000E+002   9.61810030E-001   7.04444081E-001   9.61825060E-001
   1.35000000E+002   9.65074386E-001   7.04452564E-001   9.65086900E-001
   1.40000000E+002   9.68062393E-001   7.04459357E-001   9.68072879E-001
   1.45000000E+002   9.70791056E-001   7.04464838E-001   9.70799893E-001
   1.50000000E+002   9.73289502E-001   7.04469294E-001   9.73296991E-001
   1.55000000E+002   9.75541483E-001   7.04472943E-001   9.75547861E-001
   1.60000000E+002   9.77593557E-001   7.04475949E-001   9.77599016E-001
   1.65000000E+002   9.79455082E-001   7.04478441E-001   9.79459776E-001
   1.70000000E+002   9.81167632E-001   7.04480518E-001   9.81171685E-001
   1.75000000E+002   9.82720781E-001   7.04482259E-001   9.82724296E-001
   1.80000000E+002   9.84130431E-001   7.04483726E-001   9.84133490E-001
   1.85000000E+002   9.85437797E-001   7.04484968E-001   9.85440470E-001
   1.90000000E+002   9.86633436E-001   7.04486023E-001   9.86635778E-001
   1.95000000E+002   9.87730067E-001   7.04486925E-001   9.87732128E-001
   2.00000000E+002   9.88736378E-001   7.04487698E-001   9.88738196E-001
   2.05000000E+002   9.89657922E-001   7.04488363E-001   9.89659531E-001
   2.10000000E+002   9.90489872E-001   7.04488937E-001   9.90491300E-001
   2.15000000E+002   9.91274913E-001   7.04489435E-001   9.91276183E-001
   2.20000000E+002   9.91993699E-001   7.04489868E-001   9.91994832E-001
   2.25000000E+002   9.92640601E-001   7.04490246E-001   9.92641615E-001
   2.30000000E+002   9.93266169E-001   7.04490577E-001   9.93267078E-001
   2.35000000E+002   9.93812253E-001   7.04490867E-001   9.93813070E-001
   2.40000000E+002   9.94329074E-001   7.04491123E-001   9.94329809E-001
   2.45000000E+002   9.94802126E-001   7.04491348E-001   9.94802790E-001
