# ./jetvheto -in n3lo-fixed-order/H125-LHC13-R04-mb-475-mt-1725-xmur050-xmuf050-log.fxd -xQ 0.75 -out benchmarks-n3lo-smallR/H125-LHC13-R04-mb-475-mt-1725-xmur050-xmuf050-xQ075-NNLO+NNLLb.R0-2.0.res -scheme b -order 2 -ptmax 500.01 -fixed_order 2 -small-r -loop-mass t+b -R0 2.0
# process = H    
# collider = pp   
# rts =  13000.000
# M   =    125.000
# muR =     62.500
# muF =     62.500
# Q   =     93.750
# p   =      5.000
# include_c1_squared =   F
# loop_mass  = t+b 
# alphas(MZ) =    0.11800
# alphas(M) =    0.11264
# alphas(muR) =    0.12516
# Rjet =      0.400
# order = NNLL
# pdf name and set = PDF4LHC15_nnlo_mc.LHgrid,    0
# matching scheme = b
# total cross sections [nb] at LO, NLOdiff, NNLOdiff, N3LOdiff =     0.014147    0.020254    0.008998    0.001413
#----------------------------------------------------------------------
# the lines that follow give the jet-veto efficiencies as a function of pt
#         pt            matched eff      resummed eff     fixed-order eff
   2.00000000E+001   4.57779800E-001   5.54484252E-001   3.08135668E-001
   2.50000000E+001   5.35903021E-001   6.23333257E-001   4.16958718E-001
   3.00000000E+001   5.99480304E-001   6.70936251E-001   5.02459671E-001
   3.50000000E+001   6.51798215E-001   7.03541076E-001   5.71196452E-001
   4.00000000E+001   6.95076801E-001   7.25390694E-001   6.27360842E-001
   4.50000000E+001   7.31590927E-001   7.39444486E-001   6.74295094E-001
   5.00000000E+001   7.62443230E-001   7.47814212E-001   7.13816378E-001
   5.50000000E+001   7.88599559E-001   7.52056560E-001   7.47307378E-001
   6.00000000E+001   8.11035195E-001   7.53337212E-001   7.76012324E-001
   6.50000000E+001   8.30379208E-001   7.52558197E-001   8.00751743E-001
   7.00000000E+001   8.47327855E-001   7.50427317E-001   8.22342000E-001
   7.50000000E+001   8.62013465E-001   7.47497432E-001   8.41024239E-001
   8.00000000E+001   8.75055920E-001   7.44191529E-001   8.57481768E-001
   8.50000000E+001   8.86701923E-001   7.40817868E-001   8.72028209E-001
   9.00000000E+001   8.97012397E-001   7.37585468E-001   8.84788465E-001
   9.50000000E+001   9.06198899E-001   7.34619929E-001   8.96030076E-001
   1.00000000E+002   9.14546033E-001   7.31983842E-001   9.06088095E-001
   1.05000000E+002   9.22061347E-001   7.29694311E-001   9.15022873E-001
   1.10000000E+002   9.28832857E-001   7.27739019E-001   9.22967578E-001
   1.15000000E+002   9.35021912E-001   7.26088992E-001   9.30123525E-001
   1.20000000E+002   9.40626932E-001   7.24707783E-001   9.36525194E-001
   1.25000000E+002   9.45787661E-001   7.23557373E-001   9.42341979E-001
   1.30000000E+002   9.50416596E-001   7.22601831E-001   9.47512677E-001
   1.35000000E+002   9.54649036E-001   7.21808920E-001   9.52192707E-001
   1.40000000E+002   9.58539121E-001   7.21150689E-001   9.56453519E-001
   1.45000000E+002   9.62068700E-001   7.20603489E-001   9.60291255E-001
   1.50000000E+002   9.65326657E-001   7.20147611E-001   9.63805964E-001
   1.55000000E+002   9.68292691E-001   7.19766799E-001   9.66986816E-001
   1.60000000E+002   9.70997904E-001   7.19447726E-001   9.69872376E-001
   1.65000000E+002   9.73453462E-001   7.19179505E-001   9.72479918E-001
   1.70000000E+002   9.75701979E-001   7.18953260E-001   9.74856924E-001
   1.75000000E+002   9.77794261E-001   7.18761754E-001   9.77058190E-001
   1.80000000E+002   9.79669298E-001   7.18599081E-001   9.79026110E-001
   1.85000000E+002   9.81418867E-001   7.18460415E-001   9.80855018E-001
   1.90000000E+002   9.83016891E-001   7.18341804E-001   9.82521082E-001
   1.95000000E+002   9.84475020E-001   7.18240002E-001   9.84037765E-001
   2.00000000E+002   9.85807426E-001   7.18152335E-001   9.85420716E-001
   2.05000000E+002   9.87040171E-001   7.18076597E-001   9.86697220E-001
   2.10000000E+002   9.88141746E-001   7.18010957E-001   9.87836822E-001
   2.15000000E+002   9.89191370E-001   7.17953897E-001   9.88919546E-001
   2.20000000E+002   9.90155981E-001   7.17904147E-001   9.89913075E-001
   2.25000000E+002   9.91004212E-001   7.17860647E-001   9.90786656E-001
   2.30000000E+002   9.91835674E-001   7.17822506E-001   9.91640359E-001
   2.35000000E+002   9.92560461E-001   7.17788975E-001   9.92384747E-001
   2.40000000E+002   9.93240985E-001   7.17759421E-001   9.93082569E-001
   2.45000000E+002   9.93854978E-001   7.17733307E-001   9.93711871E-001
