# ./jetvheto -in n3lo-fixed-order/H125-LHC13-R04-mb-0-mt-1725-xmur100-xmuf050-log.fxd -xQ 0.0625 -out benchmarks-n3lo-smallR/H125-LHC13-R04-mb-0-mt-1725-xmur100-xmuf050-xQ0625-N3LO+NNLLb.res -scheme b -order 2 -ptmax 500.01 -fixed_order 3 -loop-mass t
# process = H    
# collider = pp   
# rts =  13000.000
# M   =    125.000
# muR =    125.000
# muF =     62.500
# Q   =      7.812
# p   =      5.000
# include_c1_squared =   F
# loop_mass  = t   
# alphas(MZ) =    0.11800
# alphas(M) =    0.11264
# alphas(muR) =    0.11264
# Rjet =      0.400
# order = NNLL
# pdf name and set = PDF4LHC15_nnlo_mc.LHgrid,    0
# matching scheme = b
# total cross sections [nb] at LO, NLOdiff, NNLOdiff, N3LOdiff =     0.012997    0.017347    0.010424    0.004163
#----------------------------------------------------------------------
# the lines that follow give the jet-veto efficiencies as a function of pt
#         pt            matched eff      resummed eff     fixed-order eff
   2.00000000E+001   4.15545230E-001   2.76034996E-001   4.15356219E-001
   2.50000000E+001   5.08766119E-001   2.76547706E-001   5.08719955E-001
   3.00000000E+001   5.85238464E-001   2.76697852E-001   5.85226468E-001
   3.50000000E+001   6.45997526E-001   2.76752136E-001   6.45994416E-001
   4.00000000E+001   6.93926030E-001   2.76774915E-001   6.93925358E-001
   4.50000000E+001   7.34877930E-001   2.76785593E-001   7.34878042E-001
   5.00000000E+001   7.68458388E-001   2.76791046E-001   7.68458672E-001
   5.50000000E+001   7.96993792E-001   2.76794026E-001   7.96994090E-001
   6.00000000E+001   8.20887422E-001   2.76795749E-001   8.20887675E-001
   6.50000000E+001   8.42394582E-001   2.76796791E-001   8.42394793E-001
   7.00000000E+001   8.59739550E-001   2.76797447E-001   8.59739714E-001
   7.50000000E+001   8.75039537E-001   2.76797873E-001   8.75039666E-001
   8.00000000E+001   8.88699773E-001   2.76798159E-001   8.88699874E-001
   8.50000000E+001   9.00787666E-001   2.76798355E-001   9.00787747E-001
   9.00000000E+001   9.11444963E-001   2.76798493E-001   9.11445028E-001
   9.50000000E+001   9.20282813E-001   2.76798591E-001   9.20282864E-001
   1.00000000E+002   9.28519995E-001   2.76798663E-001   9.28520035E-001
   1.05000000E+002   9.35318047E-001   2.76798716E-001   9.35318080E-001
   1.10000000E+002   9.41497194E-001   2.76798756E-001   9.41497221E-001
   1.15000000E+002   9.47225782E-001   2.76798787E-001   9.47225803E-001
   1.20000000E+002   9.52386250E-001   2.76798810E-001   9.52386268E-001
   1.25000000E+002   9.56837691E-001   2.76798828E-001   9.56837706E-001
   1.30000000E+002   9.60718701E-001   2.76798843E-001   9.60718713E-001
   1.35000000E+002   9.64427083E-001   2.76798854E-001   9.64427093E-001
   1.40000000E+002   9.67810768E-001   2.76798863E-001   9.67810777E-001
   1.45000000E+002   9.70809632E-001   2.76798871E-001   9.70809639E-001
   1.50000000E+002   9.73313413E-001   2.76798876E-001   9.73313419E-001
   1.55000000E+002   9.75895540E-001   2.76798881E-001   9.75895546E-001
   1.60000000E+002   9.78222792E-001   2.76798885E-001   9.78222797E-001
   1.65000000E+002   9.79916710E-001   2.76798889E-001   9.79916714E-001
   1.70000000E+002   9.81798863E-001   2.76798892E-001   9.81798867E-001
   1.75000000E+002   9.83522837E-001   2.76798894E-001   9.83522840E-001
   1.80000000E+002   9.84938140E-001   2.76798896E-001   9.84938142E-001
   1.85000000E+002   9.86243677E-001   2.76798898E-001   9.86243680E-001
   1.90000000E+002   9.87518091E-001   2.76798899E-001   9.87518092E-001
   1.95000000E+002   9.88690645E-001   2.76798900E-001   9.88690647E-001
   2.00000000E+002   9.89742776E-001   2.76798901E-001   9.89742777E-001
   2.05000000E+002   9.90628074E-001   2.76798902E-001   9.90628076E-001
   2.10000000E+002   9.91475285E-001   2.76798903E-001   9.91475286E-001
   2.15000000E+002   9.92193879E-001   2.76798903E-001   9.92193880E-001
   2.20000000E+002   9.93044271E-001   2.76798904E-001   9.93044272E-001
   2.25000000E+002   9.93602791E-001   2.76798905E-001   9.93602792E-001
   2.30000000E+002   9.94218264E-001   2.76798905E-001   9.94218265E-001
   2.35000000E+002   9.94704383E-001   2.76798905E-001   9.94704384E-001
   2.40000000E+002   9.95200562E-001   2.76798906E-001   9.95200562E-001
   2.45000000E+002   9.95724307E-001   2.76798906E-001   9.95724307E-001
