# ./jetvheto -in n3lo-fixed-order/H125-LHC13-R04-mb-475-mt-1725-xmur025-xmuf025-log.fxd -xQ 0.25 -out benchmarks-n3lo-smallR/H125-LHC13-R04-mb-475-mt-1725-xmur025-xmuf025-xQ025-NNLO+NNLLa.R0-2.0.res -scheme a -order 2 -ptmax 500.01 -fixed_order 2 -small-r -loop-mass t+b -R0 2.0
# process = H    
# collider = pp   
# rts =  13000.000
# M   =    125.000
# muR =     31.250
# muF =     31.250
# Q   =     31.250
# p   =      5.000
# include_c1_squared =   F
# loop_mass  = t+b 
# alphas(MZ) =    0.11800
# alphas(M) =    0.11264
# alphas(muR) =    0.14091
# Rjet =      0.400
# order = NNLL
# pdf name and set = PDF4LHC15_nnlo_mc.LHgrid,    0
# matching scheme = a
# total cross sections [nb] at LO, NLOdiff, NNLOdiff, N3LOdiff =     0.016156    0.025248    0.006043   -0.002471
#----------------------------------------------------------------------
# the lines that follow give the jet-veto efficiencies as a function of pt
#         pt            matched eff      resummed eff     fixed-order eff
   2.00000000E+001   4.24946390E-001   4.24627399E-001   4.14362726E-001
   2.50000000E+001   5.09349758E-001   4.82627426E-001   5.03382423E-001
   3.00000000E+001   5.78167444E-001   5.17108044E-001   5.74877333E-001
   3.50000000E+001   6.35443214E-001   5.36018953E-001   6.33647351E-001
   4.00000000E+001   6.83267610E-001   5.46001476E-001   6.82274657E-001
   4.50000000E+001   7.23650714E-001   5.51292394E-001   7.23088176E-001
   5.00000000E+001   7.57874510E-001   5.54179208E-001   7.57541843E-001
   5.50000000E+001   7.87029438E-001   5.55816426E-001   7.86825388E-001
   6.00000000E+001   8.12119629E-001   5.56782801E-001   8.11989633E-001
   6.50000000E+001   8.33805006E-001   5.57375084E-001   8.33719045E-001
   7.00000000E+001   8.52776049E-001   5.57750693E-001   8.52717321E-001
   7.50000000E+001   8.69046428E-001   5.57996269E-001   8.69004953E-001
   8.00000000E+001   8.83500815E-001   5.58161243E-001   8.83470860E-001
   8.50000000E+001   8.96232882E-001   5.58274776E-001   8.96210714E-001
   9.00000000E+001   9.07417947E-001   5.58354608E-001   9.07401203E-001
   9.50000000E+001   9.17176781E-001   5.58411835E-001   9.17163878E-001
   1.00000000E+002   9.25862045E-001   5.58453575E-001   9.25851957E-001
   1.05000000E+002   9.33648696E-001   5.58484500E-001   9.33640696E-001
   1.10000000E+002   9.40541426E-001   5.58507739E-001   9.40535003E-001
   1.15000000E+002   9.46747473E-001   5.58525431E-001   9.46742262E-001
   1.20000000E+002   9.52309954E-001   5.58539059E-001   9.52305676E-001
   1.25000000E+002   9.57225056E-001   5.58549672E-001   9.57221507E-001
   1.30000000E+002   9.61680426E-001   5.58558020E-001   9.61677464E-001
   1.35000000E+002   9.65678281E-001   5.58564646E-001   9.65675792E-001
   1.40000000E+002   9.69250096E-001   5.58569952E-001   9.69247988E-001
   1.45000000E+002   9.72544073E-001   5.58574234E-001   9.72542277E-001
   1.50000000E+002   9.75473453E-001   5.58577715E-001   9.75471914E-001
   1.55000000E+002   9.78122394E-001   5.58580565E-001   9.78121067E-001
   1.60000000E+002   9.80541049E-001   5.58582913E-001   9.80539901E-001
   1.65000000E+002   9.82723109E-001   5.58584859E-001   9.82722112E-001
   1.70000000E+002   9.84675593E-001   5.58586482E-001   9.84674723E-001
   1.75000000E+002   9.86453869E-001   5.58587842E-001   9.86453107E-001
   1.80000000E+002   9.88053343E-001   5.58588988E-001   9.88052673E-001
   1.85000000E+002   9.89486418E-001   5.58589958E-001   9.89485827E-001
   1.90000000E+002   9.90819091E-001   5.58590782E-001   9.90818567E-001
   1.95000000E+002   9.92035369E-001   5.58591487E-001   9.92034904E-001
   2.00000000E+002   9.93123346E-001   5.58592090E-001   9.93122932E-001
   2.05000000E+002   9.94130343E-001   5.58592610E-001   9.94129974E-001
   2.10000000E+002   9.95048334E-001   5.58593059E-001   9.95048004E-001
   2.15000000E+002   9.95840081E-001   5.58593448E-001   9.95839785E-001
   2.20000000E+002   9.96593167E-001   5.58593786E-001   9.96592901E-001
   2.25000000E+002   9.97271381E-001   5.58594081E-001   9.97271142E-001
   2.30000000E+002   9.97868192E-001   5.58594340E-001   9.97867975E-001
   2.35000000E+002   9.98424569E-001   5.58594566E-001   9.98424373E-001
   2.40000000E+002   9.98910956E-001   5.58594766E-001   9.98910778E-001
   2.45000000E+002   9.99350795E-001   5.58594942E-001   9.99350634E-001
