# ./jetvheto -in n3lo-fixed-order/H125-LHC13-R04-mb-0-mt-1725-xmur100-xmuf100-log.fxd -xQ 0.125 -out benchmarks-n3lo-smallR/H125-LHC13-R04-mb-0-mt-1725-xmur100-xmuf100-xQ0125-N3LO+NNLLb.R0-2.0.res -scheme b -order 2 -ptmax 500.01 -small-r -fixed_order 3 -loop-mass t -R0 2.0
# process = H    
# collider = pp   
# rts =  13000.000
# M   =    125.000
# muR =    125.000
# muF =    125.000
# Q   =     15.625
# p   =      5.000
# include_c1_squared =   F
# loop_mass  = t   
# alphas(MZ) =    0.11800
# alphas(M) =    0.11264
# alphas(muR) =    0.11264
# Rjet =      0.400
# order = NNLL
# pdf name and set = PDF4LHC15_nnlo_mc.LHgrid,    0
# matching scheme = b
# total cross sections [nb] at LO, NLOdiff, NNLOdiff, N3LOdiff =     0.013801    0.017514    0.010146    0.003834
#----------------------------------------------------------------------
# the lines that follow give the jet-veto efficiencies as a function of pt
#         pt            matched eff      resummed eff     fixed-order eff
   2.00000000E+001   4.25057762E-001   5.19093223E-001   4.21593782E-001
   2.50000000E+001   5.14980929E-001   5.34788348E-001   5.13960990E-001
   3.00000000E+001   5.91329433E-001   5.39893745E-001   5.91015610E-001
   3.50000000E+001   6.50756206E-001   5.41805686E-001   6.50645918E-001
   4.00000000E+001   6.98878623E-001   5.42619002E-001   6.98836983E-001
   4.50000000E+001   7.37944588E-001   5.43002549E-001   7.37928057E-001
   5.00000000E+001   7.71036751E-001   5.43198975E-001   7.71030473E-001
   5.50000000E+001   7.99277602E-001   5.43306513E-001   7.99275639E-001
   6.00000000E+001   8.23059946E-001   5.43368707E-001   8.23059681E-001
   6.50000000E+001   8.44243261E-001   5.43406361E-001   8.44243758E-001
   7.00000000E+001   8.62070110E-001   5.43430059E-001   8.62070819E-001
   7.50000000E+001   8.76924782E-001   5.43445478E-001   8.76925464E-001
   8.00000000E+001   8.89966539E-001   5.43455802E-001   8.89967148E-001
   8.50000000E+001   9.01727952E-001   5.43462892E-001   9.01728487E-001
   9.00000000E+001   9.11747308E-001   5.43467870E-001   9.11747759E-001
   9.50000000E+001   9.20909231E-001   5.43471434E-001   9.20909613E-001
   1.00000000E+002   9.28579223E-001   5.43474031E-001   9.28579537E-001
   1.05000000E+002   9.35454366E-001   5.43475955E-001   9.35454626E-001
   1.10000000E+002   9.41628451E-001   5.43477400E-001   9.41628668E-001
   1.15000000E+002   9.47176952E-001   5.43478499E-001   9.47177133E-001
   1.20000000E+002   9.51996736E-001   5.43479346E-001   9.51996886E-001
   1.25000000E+002   9.56173809E-001   5.43480006E-001   9.56173934E-001
   1.30000000E+002   9.60356198E-001   5.43480524E-001   9.60356305E-001
   1.35000000E+002   9.64008350E-001   5.43480936E-001   9.64008440E-001
   1.40000000E+002   9.67091919E-001   5.43481265E-001   9.67091995E-001
   1.45000000E+002   9.70034834E-001   5.43481531E-001   9.70034899E-001
   1.50000000E+002   9.72527442E-001   5.43481747E-001   9.72527497E-001
   1.55000000E+002   9.75212407E-001   5.43481924E-001   9.75212455E-001
   1.60000000E+002   9.77041066E-001   5.43482070E-001   9.77041107E-001
   1.65000000E+002   9.78998015E-001   5.43482191E-001   9.78998050E-001
   1.70000000E+002   9.80709566E-001   5.43482292E-001   9.80709596E-001
   1.75000000E+002   9.82370597E-001   5.43482376E-001   9.82370623E-001
   1.80000000E+002   9.83895174E-001   5.43482447E-001   9.83895197E-001
   1.85000000E+002   9.85264502E-001   5.43482507E-001   9.85264523E-001
   1.90000000E+002   9.86225448E-001   5.43482558E-001   9.86225466E-001
   1.95000000E+002   9.87456480E-001   5.43482602E-001   9.87456496E-001
   2.00000000E+002   9.88501092E-001   5.43482640E-001   9.88501106E-001
   2.05000000E+002   9.89399953E-001   5.43482672E-001   9.89399966E-001
   2.10000000E+002   9.90204104E-001   5.43482700E-001   9.90204115E-001
   2.15000000E+002   9.91095709E-001   5.43482724E-001   9.91095719E-001
   2.20000000E+002   9.91741797E-001   5.43482745E-001   9.91741805E-001
   2.25000000E+002   9.92422302E-001   5.43482763E-001   9.92422310E-001
   2.30000000E+002   9.93056595E-001   5.43482779E-001   9.93056602E-001
   2.35000000E+002   9.93643496E-001   5.43482793E-001   9.93643503E-001
   2.40000000E+002   9.94041760E-001   5.43482806E-001   9.94041766E-001
   2.45000000E+002   9.94575388E-001   5.43482817E-001   9.94575393E-001
