# ./jetvheto -in n3lo-fixed-order/H125-LHC13-R04-mb-475-mt-1725-xmur200-xmuf200-log.fxd -xQ 0.5 -out benchmarks-n3lo-smallR/H125-LHC13-R04-mb-475-mt-1725-xmur200-xmuf200-xQ050-NNLO+NNLLa.R0-2.0.res -scheme a -order 2 -ptmax 500.01 -fixed_order 2 -small-r -loop-mass t+b -R0 2.0
# process = H    
# collider = pp   
# rts =  13000.000
# M   =    125.000
# muR =    250.000
# muF =    250.000
# Q   =     62.500
# p   =      5.000
# include_c1_squared =   F
# loop_mass  = t+b 
# alphas(MZ) =    0.11800
# alphas(M) =    0.11264
# alphas(muR) =    0.10244
# Rjet =      0.400
# order = NNLL
# pdf name and set = PDF4LHC15_nnlo_mc.LHgrid,    0
# matching scheme = a
# total cross sections [nb] at LO, NLOdiff, NNLOdiff, N3LOdiff =     0.010658    0.014649    0.010464    0.005358
#----------------------------------------------------------------------
# the lines that follow give the jet-veto efficiencies as a function of pt
#         pt            matched eff      resummed eff     fixed-order eff
   2.00000000E+001   5.02263580E-001   5.37380059E-001   5.35127193E-001
   2.50000000E+001   5.90538214E-001   6.18108674E-001   6.12011630E-001
   3.00000000E+001   6.58763712E-001   6.75052319E-001   6.70544774E-001
   3.50000000E+001   7.12229760E-001   7.14736229E-001   7.16922826E-001
   4.00000000E+001   7.54383766E-001   7.41867666E-001   7.54454779E-001
   4.50000000E+001   7.87932509E-001   7.59924260E-001   7.85384748E-001
   5.00000000E+001   8.14980998E-001   7.71553462E-001   8.11251726E-001
   5.50000000E+001   8.37068722E-001   7.78788597E-001   8.33093904E-001
   6.00000000E+001   8.55371132E-001   7.83152320E-001   8.51667304E-001
   6.50000000E+001   8.70903295E-001   7.85725011E-001   8.67697021E-001
   7.00000000E+001   8.84272336E-001   7.87224705E-001   8.81614063E-001
   7.50000000E+001   8.95859344E-001   7.88099551E-001   8.93709135E-001
   8.00000000E+001   9.06067007E-001   7.88615744E-001   9.04350221E-001
   8.50000000E+001   9.15023330E-001   7.88926353E-001   9.13659935E-001
   9.00000000E+001   9.22969703E-001   7.89118011E-001   9.21887551E-001
   9.50000000E+001   9.30024731E-001   7.89239617E-001   9.29163519E-001
   1.00000000E+002   9.36284572E-001   7.89319044E-001   9.35596095E-001
   1.05000000E+002   9.41951756E-001   7.89372444E-001   9.41398238E-001
   1.10000000E+002   9.47011916E-001   7.89409334E-001   9.46564151E-001
   1.15000000E+002   9.51571991E-001   7.89435467E-001   9.51207413E-001
   1.20000000E+002   9.55665251E-001   7.89454408E-001   9.55366494E-001
   1.25000000E+002   9.59350232E-001   7.89468422E-001   9.59103844E-001
   1.30000000E+002   9.62682227E-001   7.89478982E-001   9.62477770E-001
   1.35000000E+002   9.65721285E-001   7.89487070E-001   9.65550615E-001
   1.40000000E+002   9.68471039E-001   7.89493355E-001   9.68327755E-001
   1.45000000E+002   9.70963889E-001   7.89498302E-001   9.70842945E-001
   1.50000000E+002   9.73243654E-001   7.89502241E-001   9.73141036E-001
   1.55000000E+002   9.75315560E-001   7.89505410E-001   9.75228063E-001
   1.60000000E+002   9.77220576E-001   7.89507984E-001   9.77145625E-001
   1.65000000E+002   9.78960848E-001   7.89510091E-001   9.78896359E-001
   1.70000000E+002   9.80546718E-001   7.89511829E-001   9.80490997E-001
   1.75000000E+002   9.81976176E-001   7.89513273E-001   9.81927840E-001
   1.80000000E+002   9.83313588E-001   7.89514481E-001   9.83271498E-001
   1.85000000E+002   9.84541312E-001   7.89515497E-001   9.84504528E-001
   1.90000000E+002   9.85651024E-001   7.89516356E-001   9.85618768E-001
   1.95000000E+002   9.86680087E-001   7.89517086E-001   9.86651708E-001
   2.00000000E+002   9.87618068E-001   7.89517709E-001   9.87593023E-001
   2.05000000E+002   9.88490163E-001   7.89518244E-001   9.88467994E-001
   2.10000000E+002   9.89296031E-001   7.89518704E-001   9.89276353E-001
   2.15000000E+002   9.90038346E-001   7.89519102E-001   9.90020830E-001
   2.20000000E+002   9.90721097E-001   7.89519448E-001   9.90705465E-001
   2.25000000E+002   9.91347314E-001   7.89519749E-001   9.91333330E-001
   2.30000000E+002   9.91935964E-001   7.89520011E-001   9.91923423E-001
   2.35000000E+002   9.92485143E-001   7.89520242E-001   9.92473871E-001
   2.40000000E+002   9.92970950E-001   7.89520444E-001   9.92960797E-001
   2.45000000E+002   9.93436396E-001   7.89520622E-001   9.93427231E-001
