# ./jetvheto -in n3lo-fixed-order/H125-LHC13-R04-heft-xmur025-xmuf050-log.fxd -xQ 0.50 -out benchmarks-n3lo-smallR/H125-LHC13-R04-heft-xmur025-xmuf050-xQ050-N3LO+NNLLb.R0-1.0.res -scheme b -order 2 -ptmax 500.01 -fixed_order 3 -small-r -R0 1.0
# process = H    
# collider = pp   
# rts =  13000.000
# M   =    125.000
# muR =     31.250
# muF =     62.500
# Q   =     62.500
# p   =      5.000
# include_c1_squared =   F
# loop_mass  = none
# alphas(MZ) =    0.11800
# alphas(M) =    0.11264
# alphas(muR) =    0.14091
# Rjet =      0.400
# order = NNLL
# pdf name and set = PDF4LHC15_nnlo_mc.LHgrid,    0
# matching scheme = b
# total cross sections [nb] at LO, NLOdiff, NNLOdiff, N3LOdiff =     0.019087    0.023444    0.005009   -0.002663
#----------------------------------------------------------------------
# the lines that follow give the jet-veto efficiencies as a function of pt
#         pt            matched eff      resummed eff     fixed-order eff
   2.00000000E+001   4.87417241E-001   5.01810547E-001   4.83550645E-001
   2.50000000E+001   5.69436328E-001   5.69476509E-001   5.61663798E-001
   3.00000000E+001   6.40991711E-001   6.16061493E-001   6.33146331E-001
   3.50000000E+001   6.96745835E-001   6.47713738E-001   6.89320244E-001
   4.00000000E+001   7.38060250E-001   6.68737509E-001   7.31304139E-001
   4.50000000E+001   7.75350115E-001   6.82230618E-001   7.69670236E-001
   5.00000000E+001   8.03975781E-001   6.90514744E-001   7.99316506E-001
   5.50000000E+001   8.29410872E-001   6.95345048E-001   8.25709641E-001
   6.00000000E+001   8.49539530E-001   6.98008559E-001   8.46646269E-001
   6.50000000E+001   8.69315361E-001   6.99390849E-001   8.67078465E-001
   7.00000000E+001   8.83201455E-001   7.00059672E-001   8.81478648E-001
   7.50000000E+001   8.96052214E-001   7.00353018E-001   8.94727956E-001
   8.00000000E+001   9.07961450E-001   7.00459297E-001   9.06939030E-001
   8.50000000E+001   9.18621510E-001   7.00477895E-001   9.17827771E-001
   9.00000000E+001   9.28081843E-001   7.00459108E-001   9.27461369E-001
   9.50000000E+001   9.35089594E-001   7.00427192E-001   9.34602235E-001
   1.00000000E+002   9.42112059E-001   7.00393210E-001   9.41725608E-001
   1.05000000E+002   9.47255421E-001   7.00361777E-001   9.46947268E-001
   1.10000000E+002   9.52139967E-001   7.00334456E-001   9.51892145E-001
   1.15000000E+002   9.56975129E-001   7.00311441E-001   9.56774222E-001
   1.20000000E+002   9.61351290E-001   7.00292363E-001   9.61187239E-001
   1.25000000E+002   9.64676789E-001   7.00276674E-001   9.64541996E-001
   1.30000000E+002   9.67527305E-001   7.00263811E-001   9.67415911E-001
   1.35000000E+002   9.70659401E-001   7.00253268E-001   9.70566662E-001
   1.40000000E+002   9.73499457E-001   7.00244611E-001   9.73421804E-001
   1.45000000E+002   9.75842315E-001   7.00237485E-001   9.75776965E-001
   1.50000000E+002   9.77362685E-001   7.00231598E-001   9.77307429E-001
   1.55000000E+002   9.79608304E-001   7.00226716E-001   9.79561296E-001
   1.60000000E+002   9.81620033E-001   7.00222650E-001   9.81579860E-001
   1.65000000E+002   9.82358758E-001   7.00219251E-001   9.82324329E-001
   1.70000000E+002   9.83900193E-001   7.00216397E-001   9.83870516E-001
   1.75000000E+002   9.85366102E-001   7.00213990E-001   9.85340414E-001
   1.80000000E+002   9.86326653E-001   7.00211953E-001   9.86304351E-001
   1.85000000E+002   9.87196846E-001   7.00210221E-001   9.87177411E-001
   1.90000000E+002   9.88215618E-001   7.00208743E-001   9.88198614E-001
   1.95000000E+002   9.89168965E-001   7.00207477E-001   9.89154041E-001
   2.00000000E+002   9.89994225E-001   7.00206390E-001   9.89981086E-001
   2.05000000E+002   9.90561134E-001   7.00205451E-001   9.90549533E-001
   2.10000000E+002   9.91222449E-001   7.00204639E-001   9.91212177E-001
   2.15000000E+002   9.91623505E-001   7.00203934E-001   9.91614383E-001
   2.20000000E+002   9.92508815E-001   7.00203320E-001   9.92500689E-001
   2.25000000E+002   9.92782870E-001   7.00202783E-001   9.92775620E-001
   2.30000000E+002   9.93233006E-001   7.00202313E-001   9.93226516E-001
   2.35000000E+002   9.93519088E-001   7.00201900E-001   9.93513267E-001
   2.40000000E+002   9.93886481E-001   7.00201536E-001   9.93881249E-001
   2.45000000E+002   9.94414556E-001   7.00201215E-001   9.94409841E-001
