# ./jetvheto -in n3lo-fixed-order/H125-LHC13-R04-mb-475-mt-1725-xmur050-xmuf050-log.fxd -xQ 0.125 -out benchmarks-n3lo-smallR/H125-LHC13-R04-mb-475-mt-1725-xmur050-xmuf050-xQ0125-N3LO+NNLLa.res -scheme a -order 2 -ptmax 500.01 -fixed_order 3 -loop-mass t+b
# process = H    
# collider = pp   
# rts =  13000.000
# M   =    125.000
# muR =     62.500
# muF =     62.500
# Q   =     15.625
# p   =      5.000
# include_c1_squared =   F
# loop_mass  = t+b 
# alphas(MZ) =    0.11800
# alphas(M) =    0.11264
# alphas(muR) =    0.12516
# Rjet =      0.400
# order = NNLL
# pdf name and set = PDF4LHC15_nnlo_mc.LHgrid,    0
# matching scheme = a
# total cross sections [nb] at LO, NLOdiff, NNLOdiff, N3LOdiff =     0.014147    0.020254    0.008998    0.001413
#----------------------------------------------------------------------
# the lines that follow give the jet-veto efficiencies as a function of pt
#         pt            matched eff      resummed eff     fixed-order eff
   2.00000000E+001   4.40519220E-001   4.21717690E-001   4.41074844E-001
   2.50000000E+001   5.26025597E-001   4.35622286E-001   5.26291803E-001
   3.00000000E+001   5.99415011E-001   4.40153166E-001   5.99588615E-001
   3.50000000E+001   6.57999998E-001   4.41850950E-001   6.58104134E-001
   4.00000000E+001   7.03639294E-001   4.42573331E-001   7.03699261E-001
   4.50000000E+001   7.43870377E-001   4.42914029E-001   7.43908515E-001
   5.00000000E+001   7.76243559E-001   4.43088519E-001   7.76267730E-001
   5.50000000E+001   8.04422232E-001   4.43184050E-001   8.04438345E-001
   6.00000000E+001   8.27656995E-001   4.43239301E-001   8.27667847E-001
   6.50000000E+001   8.49065793E-001   4.43272752E-001   8.49073502E-001
   7.00000000E+001   8.65761653E-001   4.43293805E-001   8.65767048E-001
   7.50000000E+001   8.80670195E-001   4.43307502E-001   8.80674091E-001
   8.00000000E+001   8.94135153E-001   4.43316674E-001   8.94138038E-001
   8.50000000E+001   9.06104660E-001   4.43322972E-001   9.06106835E-001
   9.00000000E+001   9.16609344E-001   4.43327394E-001   9.16611008E-001
   9.50000000E+001   9.25077204E-001   4.43330561E-001   9.25078477E-001
   1.00000000E+002   9.33100793E-001   4.43332868E-001   9.33101787E-001
   1.05000000E+002   9.39584827E-001   4.43334577E-001   9.39585604E-001
   1.10000000E+002   9.45494573E-001   4.43335861E-001   9.45495190E-001
   1.15000000E+002   9.51093609E-001   4.43336838E-001   9.51094105E-001
   1.20000000E+002   9.56107275E-001   4.43337590E-001   9.56107678E-001
   1.25000000E+002   9.60295950E-001   4.43338176E-001   9.60296277E-001
   1.30000000E+002   9.63937755E-001   4.43338636E-001   9.63938023E-001
   1.35000000E+002   9.67546669E-001   4.43339002E-001   9.67546891E-001
   1.40000000E+002   9.70830064E-001   4.43339295E-001   9.70830250E-001
   1.45000000E+002   9.73664489E-001   4.43339531E-001   9.73664645E-001
   1.50000000E+002   9.75887689E-001   4.43339723E-001   9.75887820E-001
   1.55000000E+002   9.78411418E-001   4.43339880E-001   9.78411529E-001
   1.60000000E+002   9.80667999E-001   4.43340010E-001   9.80668095E-001
   1.65000000E+002   9.82074063E-001   4.43340117E-001   9.82074144E-001
   1.70000000E+002   9.83849970E-001   4.43340206E-001   9.83850040E-001
   1.75000000E+002   9.85520574E-001   4.43340281E-001   9.85520635E-001
   1.80000000E+002   9.86797294E-001   4.43340345E-001   9.86797346E-001
   1.85000000E+002   9.87975347E-001   4.43340398E-001   9.87975392E-001
   1.90000000E+002   9.89172298E-001   4.43340444E-001   9.89172337E-001
   1.95000000E+002   9.90274777E-001   4.43340482E-001   9.90274812E-001
   2.00000000E+002   9.91246332E-001   4.43340516E-001   9.91246363E-001
   2.05000000E+002   9.92022390E-001   4.43340544E-001   9.92022417E-001
   2.10000000E+002   9.92795384E-001   4.43340569E-001   9.92795408E-001
   2.15000000E+002   9.93402900E-001   4.43340591E-001   9.93402921E-001
   2.20000000E+002   9.94259291E-001   4.43340609E-001   9.94259310E-001
   2.25000000E+002   9.94706362E-001   4.43340626E-001   9.94706379E-001
   2.30000000E+002   9.95249328E-001   4.43340640E-001   9.95249343E-001
   2.35000000E+002   9.95653987E-001   4.43340652E-001   9.95654001E-001
   2.40000000E+002   9.96087970E-001   4.43340663E-001   9.96087982E-001
   2.45000000E+002   9.96585691E-001   4.43340673E-001   9.96585702E-001
