# ./jetvheto -in n3lo-fixed-order/H125-LHC13-R04-heft-xmur100-xmuf100-log.fxd -xQ 0.333 -out benchmarks-n3lo-smallR/H125-LHC13-R04-heft-xmur100-xmuf100-xQ033-NNLO+NNLLa.res -scheme a -order 2 -ptmax 500.01 -fixed_order 2
# process = H    
# collider = pp   
# rts =  13000.000
# M   =    125.000
# muR =    125.000
# muF =    125.000
# Q   =     41.625
# p   =      5.000
# include_c1_squared =   F
# loop_mass  = none
# alphas(MZ) =    0.11800
# alphas(M) =    0.11264
# alphas(muR) =    0.11264
# Rjet =      0.400
# order = NNLL
# pdf name and set = PDF4LHC15_nnlo_mc.LHgrid,    0
# matching scheme = a
# total cross sections [nb] at LO, NLOdiff, NNLOdiff, N3LOdiff =     0.012945    0.016716    0.010146    0.003834
#----------------------------------------------------------------------
# the lines that follow give the jet-veto efficiencies as a function of pt
#         pt            matched eff      resummed eff     fixed-order eff
   2.00000000E+001   4.82706106E-001   5.19249749E-001   5.03121755E-001
   2.50000000E+001   5.70030935E-001   5.98924276E-001   5.84489186E-001
   3.00000000E+001   6.37787187E-001   6.52719301E-001   6.47024325E-001
   3.50000000E+001   6.90835610E-001   6.87515841E-001   6.96432698E-001
   4.00000000E+001   7.33179948E-001   7.09082709E-001   7.36537087E-001
   4.50000000E+001   7.67446500E-001   7.22058162E-001   7.69498888E-001
   5.00000000E+001   7.95757734E-001   7.29786875E-001   7.97057559E-001
   5.50000000E+001   8.19441645E-001   7.34426070E-001   8.20296043E-001
   6.00000000E+001   8.39597627E-001   7.37264286E-001   8.40179538E-001
   6.50000000E+001   8.56903634E-001   7.39043710E-001   8.57311575E-001
   7.00000000E+001   8.71776932E-001   7.40188735E-001   8.72069843E-001
   7.50000000E+001   8.84741389E-001   7.40944549E-001   8.84956099E-001
   8.00000000E+001   8.96076860E-001   7.41455554E-001   8.96237121E-001
   8.50000000E+001   9.05981256E-001   7.41808765E-001   9.06102675E-001
   9.00000000E+001   9.14786775E-001   7.42057892E-001   9.14880120E-001
   9.50000000E+001   9.22531479E-001   7.42236866E-001   9.22604114E-001
   1.00000000E+002   9.29415860E-001   7.42367613E-001   9.29473021E-001
   1.05000000E+002   9.35557708E-001   7.42464595E-001   9.35603161E-001
   1.10000000E+002   9.41016914E-001   7.42537538E-001   9.41053390E-001
   1.15000000E+002   9.45946424E-001   7.42593105E-001   9.45975962E-001
   1.20000000E+002   9.50356817E-001   7.42635930E-001   9.50380922E-001
   1.25000000E+002   9.54334256E-001   7.42669293E-001   9.54354081E-001
   1.30000000E+002   9.57917541E-001   7.42695542E-001   9.57933958E-001
   1.35000000E+002   9.61182193E-001   7.42716385E-001   9.61195880E-001
   1.40000000E+002   9.64098762E-001   7.42733076E-001   9.64110237E-001
   1.45000000E+002   9.66801323E-001   7.42746549E-001   9.66811003E-001
   1.50000000E+002   9.69208448E-001   7.42757503E-001   9.69216654E-001
   1.55000000E+002   9.71418206E-001   7.42766472E-001   9.71425199E-001
   1.60000000E+002   9.73453105E-001   7.42773863E-001   9.73459094E-001
   1.65000000E+002   9.75296705E-001   7.42779990E-001   9.75301855E-001
   1.70000000E+002   9.77006147E-001   7.42785098E-001   9.77010596E-001
   1.75000000E+002   9.78550485E-001   7.42789380E-001   9.78554343E-001
   1.80000000E+002   9.79987337E-001   7.42792987E-001   9.79990696E-001
   1.85000000E+002   9.81293492E-001   7.42796040E-001   9.81296426E-001
   1.90000000E+002   9.82501354E-001   7.42798636E-001   9.82503927E-001
   1.95000000E+002   9.83636024E-001   7.42800853E-001   9.83638287E-001
   2.00000000E+002   9.84673210E-001   7.42802753E-001   9.84675207E-001
   2.05000000E+002   9.85637318E-001   7.42804389E-001   9.85639085E-001
   2.10000000E+002   9.86521451E-001   7.42805802E-001   9.86523019E-001
   2.15000000E+002   9.87329586E-001   7.42807027E-001   9.87330981E-001
   2.20000000E+002   9.88090974E-001   7.42808093E-001   9.88092219E-001
   2.25000000E+002   9.88793869E-001   7.42809022E-001   9.88794983E-001
   2.30000000E+002   9.89450063E-001   7.42809836E-001   9.89451061E-001
   2.35000000E+002   9.90074909E-001   7.42810550E-001   9.90075806E-001
   2.40000000E+002   9.90640047E-001   7.42811178E-001   9.90640855E-001
   2.45000000E+002   9.91174226E-001   7.42811733E-001   9.91174955E-001
