# ./jetvheto -in n3lo-fixed-order/H125-LHC13-R04-mb-475-mt-1725-xmur100-xmuf050-log.fxd -xQ 0.25 -out benchmarks-n3lo-smallR/H125-LHC13-R04-mb-475-mt-1725-xmur100-xmuf050-xQ025-NNLO+NNLLa.R0-1.5.res -scheme a -order 2 -ptmax 500.01 -fixed_order 2 -small-r -loop-mass t+b -R0 1.5
# process = H    
# collider = pp   
# rts =  13000.000
# M   =    125.000
# muR =    125.000
# muF =     62.500
# Q   =     31.250
# p   =      5.000
# include_c1_squared =   F
# loop_mass  = t+b 
# alphas(MZ) =    0.11800
# alphas(M) =    0.11264
# alphas(muR) =    0.11264
# Rjet =      0.400
# order = NNLL
# pdf name and set = PDF4LHC15_nnlo_mc.LHgrid,    0
# matching scheme = a
# total cross sections [nb] at LO, NLOdiff, NNLOdiff, N3LOdiff =     0.011575    0.016866    0.010424    0.004163
#----------------------------------------------------------------------
# the lines that follow give the jet-veto efficiencies as a function of pt
#         pt            matched eff      resummed eff     fixed-order eff
   2.00000000E+001   4.69563235E-001   5.10773070E-001   4.89064583E-001
   2.50000000E+001   5.56899821E-001   5.81777016E-001   5.70034720E-001
   3.00000000E+001   6.24798598E-001   6.23838151E-001   6.32942870E-001
   3.50000000E+001   6.78321294E-001   6.46847324E-001   6.83258386E-001
   4.00000000E+001   7.21213683E-001   6.58973226E-001   7.24239561E-001
   4.50000000E+001   7.56558668E-001   6.65393468E-001   7.58461479E-001
   5.00000000E+001   7.86021140E-001   6.68894368E-001   7.87253375E-001
   5.50000000E+001   8.10840810E-001   6.70879175E-001   8.11661801E-001
   6.00000000E+001   8.32048310E-001   6.72050479E-001   8.32610002E-001
   6.50000000E+001   8.50283177E-001   6.72768272E-001   8.50676857E-001
   7.00000000E+001   8.66175310E-001   6.73223440E-001   8.66457347E-001
   7.50000000E+001   8.79947356E-001   6.73521018E-001   8.80153278E-001
   8.00000000E+001   8.92079595E-001   6.73720919E-001   8.92232619E-001
   8.50000000E+001   9.02816898E-001   6.73858486E-001   9.02932418E-001
   9.00000000E+001   9.12234870E-001   6.73955215E-001   9.12323320E-001
   9.50000000E+001   9.20564101E-001   6.74024555E-001   9.20632683E-001
   1.00000000E+002   9.28020255E-001   6.74075129E-001   9.28074069E-001
   1.05000000E+002   9.34673448E-001   6.74112599E-001   9.34716121E-001
   1.10000000E+002   9.40587833E-001   6.74140757E-001   9.40622008E-001
   1.15000000E+002   9.45933512E-001   6.74162192E-001   9.45961129E-001
   1.20000000E+002   9.50721977E-001   6.74178705E-001   9.50744483E-001
   1.25000000E+002   9.55081909E-001   6.74191563E-001   9.55100393E-001
   1.30000000E+002   9.58975040E-001   6.74201677E-001   9.58990329E-001
   1.35000000E+002   9.62497352E-001   6.74209706E-001   9.62510083E-001
   1.40000000E+002   9.65715153E-001   6.74216135E-001   9.65725821E-001
   1.45000000E+002   9.68624958E-001   6.74221322E-001   9.68633949E-001
   1.50000000E+002   9.71290272E-001   6.74225540E-001   9.71297891E-001
   1.55000000E+002   9.73711048E-001   6.74228993E-001   9.73717539E-001
   1.60000000E+002   9.75911890E-001   6.74231838E-001   9.75917445E-001
   1.65000000E+002   9.77908639E-001   6.74234197E-001   9.77913415E-001
   1.70000000E+002   9.79727661E-001   6.74236163E-001   9.79731786E-001
   1.75000000E+002   9.81414124E-001   6.74237811E-001   9.81417700E-001
   1.80000000E+002   9.82932064E-001   6.74239199E-001   9.82935177E-001
   1.85000000E+002   9.84344760E-001   6.74240374E-001   9.84347479E-001
   1.90000000E+002   9.85631871E-001   6.74241373E-001   9.85634255E-001
   1.95000000E+002   9.86809821E-001   6.74242226E-001   9.86811918E-001
   2.00000000E+002   9.87886462E-001   6.74242958E-001   9.87888312E-001
   2.05000000E+002   9.88879988E-001   6.74243587E-001   9.88881626E-001
   2.10000000E+002   9.89773655E-001   6.74244131E-001   9.89775108E-001
   2.15000000E+002   9.90620414E-001   6.74244602E-001   9.90621707E-001
   2.20000000E+002   9.91399236E-001   6.74245012E-001   9.91400389E-001
   2.25000000E+002   9.92092715E-001   6.74245370E-001   9.92093747E-001
   2.30000000E+002   9.92759760E-001   6.74245683E-001   9.92760685E-001
   2.35000000E+002   9.93350365E-001   6.74245958E-001   9.93351196E-001
   2.40000000E+002   9.93904222E-001   6.74246200E-001   9.93904970E-001
   2.45000000E+002   9.94403799E-001   6.74246413E-001   9.94404475E-001
