# ./jetvheto -in n3lo-fixed-order/H125-LHC13-R04-heft-xmur100-xmuf200-log.fxd -xQ 0.50 -out benchmarks-n3lo-smallR/H125-LHC13-R04-heft-xmur100-xmuf200-xQ050-NNLO+NNLLb.R0-0.5.res -scheme b -order 2 -ptmax 500.01 -fixed_order 2 -small-r -R0 0.5
# process = H    
# collider = pp   
# rts =  13000.000
# M   =    125.000
# muR =    125.000
# muF =    250.000
# Q   =     62.500
# p   =      5.000
# include_c1_squared =   F
# loop_mass  = none
# alphas(MZ) =    0.11800
# alphas(M) =    0.11264
# alphas(muR) =    0.11264
# Rjet =      0.400
# order = NNLL
# pdf name and set = PDF4LHC15_nnlo_mc.LHgrid,    0
# matching scheme = b
# total cross sections [nb] at LO, NLOdiff, NNLOdiff, N3LOdiff =     0.013467    0.016878    0.009991    0.003297
#----------------------------------------------------------------------
# the lines that follow give the jet-veto efficiencies as a function of pt
#         pt            matched eff      resummed eff     fixed-order eff
   2.00000000E+001   4.23839507E-001   5.27849665E-001   3.43340794E-001
   2.50000000E+001   5.07972449E-001   6.09125253E-001   4.52409348E-001
   3.00000000E+001   5.75916717E-001   6.66204396E-001   5.35758637E-001
   3.50000000E+001   6.31410860E-001   7.05773571E-001   6.01503733E-001
   4.00000000E+001   6.77228160E-001   7.32659837E-001   6.54564188E-001
   4.50000000E+001   7.15753698E-001   7.50421735E-001   6.98445136E-001
   5.00000000E+001   7.48088082E-001   7.61758032E-001   7.34840813E-001
   5.50000000E+001   7.75785270E-001   7.68731106E-001   7.65662557E-001
   6.00000000E+001   7.99499565E-001   7.72876222E-001   7.91779976E-001
   6.50000000E+001   8.20056821E-001   7.75275275E-001   8.14177418E-001
   7.00000000E+001   8.38114596E-001   7.76641559E-001   8.33632301E-001
   7.50000000E+001   8.53898337E-001   7.77415997E-001   8.50470066E-001
   8.00000000E+001   8.67921602E-001   7.77857436E-001   8.65285633E-001
   8.50000000E+001   8.80239014E-001   7.78112589E-001   8.78198768E-001
   9.00000000E+001   8.91263456E-001   7.78263046E-001   8.89672217E-001
   9.50000000E+001   9.01022212E-001   7.78353893E-001   8.99771148E-001
   1.00000000E+002   9.09634018E-001   7.78410198E-001   9.08642362E-001
   1.05000000E+002   9.17449880E-001   7.78446073E-001   9.16657297E-001
   1.10000000E+002   9.24449253E-001   7.78469564E-001   9.23810697E-001
   1.15000000E+002   9.30704541E-001   7.78485363E-001   9.30186115E-001
   1.20000000E+002   9.36347222E-001   7.78496261E-001   9.35923218E-001
   1.25000000E+002   9.41399704E-001   7.78503962E-001   9.41050492E-001
   1.30000000E+002   9.45966919E-001   7.78509525E-001   9.45677390E-001
   1.35000000E+002   9.50164576E-001   7.78513627E-001   9.49923010E-001
   1.40000000E+002   9.53939286E-001   7.78516707E-001   9.53736540E-001
   1.45000000E+002   9.57359467E-001   7.78519060E-001   9.57188352E-001
   1.50000000E+002   9.60474777E-001   7.78520885E-001   9.60329592E-001
   1.55000000E+002   9.63309633E-001   7.78522319E-001   9.63185830E-001
   1.60000000E+002   9.65939712E-001   7.78523460E-001   9.65833642E-001
   1.65000000E+002   9.68326840E-001   7.78524379E-001   9.68235558E-001
   1.70000000E+002   9.70505130E-001   7.78525125E-001   9.70426241E-001
   1.75000000E+002   9.72473102E-001   7.78525737E-001   9.72404651E-001
   1.80000000E+002   9.74306363E-001   7.78526243E-001   9.74246742E-001
   1.85000000E+002   9.76008798E-001   7.78526664E-001   9.75956678E-001
   1.90000000E+002   9.77559562E-001   7.78527017E-001   9.77513844E-001
   1.95000000E+002   9.78995460E-001   7.78527315E-001   9.78955226E-001
   2.00000000E+002   9.80307062E-001   7.78527568E-001   9.80271544E-001
   2.05000000E+002   9.81531164E-001   7.78527783E-001   9.81499716E-001
   2.10000000E+002   9.82667820E-001   7.78527968E-001   9.82639896E-001
   2.15000000E+002   9.83724752E-001   7.78528127E-001   9.83699890E-001
   2.20000000E+002   9.84697090E-001   7.78528264E-001   9.84674897E-001
   2.25000000E+002   9.85597600E-001   7.78528384E-001   9.85577740E-001
   2.30000000E+002   9.86447074E-001   7.78528488E-001   9.86429260E-001
   2.35000000E+002   9.87240341E-001   7.78528578E-001   9.87224325E-001
   2.40000000E+002   9.87953782E-001   7.78528658E-001   9.87939351E-001
   2.45000000E+002   9.88640222E-001   7.78528728E-001   9.88627193E-001
