# ./jetvheto -in n3lo-fixed-order/H125-LHC13-R04-heft-xmur100-xmuf100-log.fxd -xQ 0.25 -out benchmarks-n3lo-smallR/H125-LHC13-R04-heft-xmur100-xmuf100-xQ025-NNLO+NNLLb.res -scheme b -order 2 -ptmax 500.01 -fixed_order 2
# process = H    
# collider = pp   
# rts =  13000.000
# M   =    125.000
# muR =    125.000
# muF =    125.000
# Q   =     31.250
# p   =      5.000
# include_c1_squared =   F
# loop_mass  = none
# alphas(MZ) =    0.11800
# alphas(M) =    0.11264
# alphas(muR) =    0.11264
# Rjet =      0.400
# order = NNLL
# pdf name and set = PDF4LHC15_nnlo_mc.LHgrid,    0
# matching scheme = b
# total cross sections [nb] at LO, NLOdiff, NNLOdiff, N3LOdiff =     0.012945    0.016716    0.010146    0.003834
#----------------------------------------------------------------------
# the lines that follow give the jet-veto efficiencies as a function of pt
#         pt            matched eff      resummed eff     fixed-order eff
   2.00000000E+001   3.87548357E-001   5.35295298E-001   3.33152974E-001
   2.50000000E+001   4.70083621E-001   6.07715601E-001   4.42354030E-001
   3.00000000E+001   5.40053820E-001   6.50310413E-001   5.26280770E-001
   3.50000000E+001   5.99417883E-001   6.73488379E-001   5.92590428E-001
   4.00000000E+001   6.49876465E-001   6.85662506E-001   6.46413459E-001
   4.50000000E+001   6.92477509E-001   6.92095954E-001   6.90650611E-001
   5.00000000E+001   7.28643405E-001   6.95600193E-001   7.27636368E-001
   5.50000000E+001   7.59404051E-001   6.97585632E-001   7.58824117E-001
   6.00000000E+001   7.85856478E-001   6.98756873E-001   7.85509225E-001
   6.50000000E+001   8.08717254E-001   6.99474465E-001   8.08501674E-001
   7.00000000E+001   8.28446670E-001   6.99929442E-001   8.28308351E-001
   7.50000000E+001   8.45694009E-001   7.00226867E-001   8.45602652E-001
   8.00000000E+001   8.60804524E-001   7.00426654E-001   8.60742611E-001
   8.50000000E+001   8.74025909E-001   7.00564136E-001   8.73982907E-001
   9.00000000E+001   8.85793356E-001   7.00660803E-001   8.85762882E-001
   9.50000000E+001   8.96151080E-001   7.00730097E-001   8.96129047E-001
   1.00000000E+002   9.05363837E-001   7.00780637E-001   9.05347624E-001
   1.05000000E+002   9.13586844E-001   7.00818081E-001   9.13574722E-001
   1.10000000E+002   9.20898533E-001   7.00846219E-001   9.20889329E-001
   1.15000000E+002   9.27502860E-001   7.00867640E-001   9.27495781E-001
   1.20000000E+002   9.33413077E-001   7.00884141E-001   9.33407561E-001
   1.25000000E+002   9.38744178E-001   7.00896990E-001   9.38739831E-001
   1.30000000E+002   9.43547751E-001   7.00907097E-001   9.43544289E-001
   1.35000000E+002   9.47924810E-001   7.00915120E-001   9.47922026E-001
   1.40000000E+002   9.51835568E-001   7.00921544E-001   9.51833307E-001
   1.45000000E+002   9.55459783E-001   7.00926728E-001   9.55457933E-001
   1.50000000E+002   9.58688021E-001   7.00930943E-001   9.58686494E-001
   1.55000000E+002   9.61651793E-001   7.00934393E-001   9.61650523E-001
   1.60000000E+002   9.64381221E-001   7.00937236E-001   9.64380158E-001
   1.65000000E+002   9.66854175E-001   7.00939593E-001   9.66853279E-001
   1.70000000E+002   9.69147294E-001   7.00941558E-001   9.69146535E-001
   1.75000000E+002   9.71219004E-001   7.00943205E-001   9.71218357E-001
   1.80000000E+002   9.73146602E-001   7.00944592E-001   9.73146048E-001
   1.85000000E+002   9.74898911E-001   7.00945766E-001   9.74898433E-001
   1.90000000E+002   9.76519400E-001   7.00946764E-001   9.76518987E-001
   1.95000000E+002   9.78041740E-001   7.00947617E-001   9.78041382E-001
   2.00000000E+002   9.79433317E-001   7.00948348E-001   9.79433004E-001
   2.05000000E+002   9.80726874E-001   7.00948977E-001   9.80726600E-001
   2.10000000E+002   9.81913145E-001   7.00949520E-001   9.81912904E-001
   2.15000000E+002   9.82997461E-001   7.00949991E-001   9.82997248E-001
   2.20000000E+002   9.84019073E-001   7.00950401E-001   9.84018885E-001
   2.25000000E+002   9.84962213E-001   7.00950758E-001   9.84962045E-001
   2.30000000E+002   9.85842700E-001   7.00951071E-001   9.85842551E-001
   2.35000000E+002   9.86681138E-001   7.00951346E-001   9.86681004E-001
   2.40000000E+002   9.87439460E-001   7.00951587E-001   9.87439341E-001
   2.45000000E+002   9.88156250E-001   7.00951800E-001   9.88156143E-001
