# ./jetvheto -in n3lo-fixed-order/H125-LHC13-R04-heft-xmur050-xmuf050-log.fxd -xQ 0.50 -out benchmarks-n3lo-smallR/H125-LHC13-R04-heft-xmur050-xmuf050-xQ050-NNLO+NNLLb.R0-2.0.res -scheme b -order 2 -ptmax 500.01 -fixed_order 2 -small-r -R0 2.0
# process = H    
# collider = pp   
# rts =  13000.000
# M   =    125.000
# muR =     62.500
# muF =     62.500
# Q   =     62.500
# p   =      5.000
# include_c1_squared =   F
# loop_mass  = none
# alphas(MZ) =    0.11800
# alphas(M) =    0.11264
# alphas(muR) =    0.12516
# Rjet =      0.400
# order = NNLL
# pdf name and set = PDF4LHC15_nnlo_mc.LHgrid,    0
# matching scheme = b
# total cross sections [nb] at LO, NLOdiff, NNLOdiff, N3LOdiff =     0.015055    0.019611    0.008998    0.001413
#----------------------------------------------------------------------
# the lines that follow give the jet-veto efficiencies as a function of pt
#         pt            matched eff      resummed eff     fixed-order eff
   2.00000000E+001   4.29654134E-001   5.13218531E-001   3.20844325E-001
   2.50000000E+001   5.08783543E-001   5.87134387E-001   4.29272444E-001
   3.00000000E+001   5.73254309E-001   6.39121317E-001   5.13978769E-001
   3.50000000E+001   6.26139981E-001   6.75250554E-001   5.81442017E-001
   4.00000000E+001   6.70335747E-001   6.99880447E-001   6.36470582E-001
   4.50000000E+001   7.07705328E-001   7.16206002E-001   6.82049408E-001
   5.00000000E+001   7.39689530E-001   7.26661157E-001   7.20304754E-001
   5.50000000E+001   7.67314760E-001   7.33117508E-001   7.52707770E-001
   6.00000000E+001   7.91282816E-001   7.36975014E-001   7.80293093E-001
   6.50000000E+001   8.12368916E-001   7.39221253E-001   8.04094553E-001
   7.00000000E+001   8.31048199E-001   7.40509927E-001   8.24799203E-001
   7.50000000E+001   8.47433551E-001   7.41246897E-001   8.42689242E-001
   8.00000000E+001   8.62030010E-001   7.41671483E-001   8.58403155E-001
   8.50000000E+001   8.75043589E-001   7.41919886E-001   8.72248607E-001
   9.00000000E+001   8.86662838E-001   7.42068448E-001   8.84490214E-001
   9.50000000E+001   8.96947891E-001   7.42159628E-001   8.95243884E-001
   1.00000000E+002   9.06170466E-001   7.42217164E-001   9.04822178E-001
   1.05000000E+002   9.14373527E-001   7.42254516E-001   9.13297358E-001
   1.10000000E+002   9.21775592E-001   7.42279450E-001   9.20909416E-001
   1.15000000E+002   9.28397663E-001   7.42296547E-001   9.27694941E-001
   1.20000000E+002   9.34385733E-001   7.42308567E-001   9.33811268E-001
   1.25000000E+002   9.39795318E-001   7.42317215E-001   9.39322340E-001
   1.30000000E+002   9.44643472E-001   7.42323571E-001   9.44251399E-001
   1.35000000E+002   9.49062768E-001   7.42328332E-001   9.48735691E-001
   1.40000000E+002   9.53072309E-001   7.42331959E-001   9.52797807E-001
   1.45000000E+002   9.56671132E-001   7.42334766E-001   9.56439457E-001
   1.50000000E+002   9.59982854E-001   7.42336968E-001   9.59786275E-001
   1.55000000E+002   9.62971982E-001   7.42338717E-001   9.62804347E-001
   1.60000000E+002   9.65723309E-001   7.42340121E-001   9.65579670E-001
   1.65000000E+002   9.68205637E-001   7.42341260E-001   9.68082008E-001
   1.70000000E+002   9.70504688E-001   7.42342192E-001   9.70397828E-001
   1.75000000E+002   9.72625292E-001   7.42342961E-001   9.72532555E-001
   1.80000000E+002   9.74541391E-001   7.42343600E-001   9.74460602E-001
   1.85000000E+002   9.76310431E-001   7.42344135E-001   9.76239797E-001
   1.90000000E+002   9.77942520E-001   7.42344585E-001   9.77880551E-001
   1.95000000E+002   9.79429830E-001   7.42344966E-001   9.79375286E-001
   2.00000000E+002   9.80802799E-001   7.42345290E-001   9.80754640E-001
   2.05000000E+002   9.82085402E-001   7.42345567E-001   9.82042753E-001
   2.10000000E+002   9.83251228E-001   7.42345805E-001   9.83213352E-001
   2.15000000E+002   9.84345833E-001   7.42346011E-001   9.84312105E-001
   2.20000000E+002   9.85359519E-001   7.42346189E-001   9.85329407E-001
   2.25000000E+002   9.86268464E-001   7.42346343E-001   9.86241514E-001
   2.30000000E+002   9.87166005E-001   7.42346478E-001   9.87141826E-001
   2.35000000E+002   9.87957373E-001   7.42346596E-001   9.87935633E-001
   2.40000000E+002   9.88707402E-001   7.42346700E-001   9.88687810E-001
   2.45000000E+002   9.89404688E-001   7.42346791E-001   9.89386996E-001
