# ./jetvheto -in n3lo-fixed-order/H125-LHC13-R04-mb-475-mt-1725-xmur050-xmuf025-log.fxd -xQ 0.25 -out benchmarks-n3lo-smallR/H125-LHC13-R04-mb-475-mt-1725-xmur050-xmuf025-xQ025-NNLO+NNLLa.R0-0.5.res -scheme a -order 2 -ptmax 500.01 -fixed_order 2 -small-r -loop-mass t+b -R0 0.5
# process = H    
# collider = pp   
# rts =  13000.000
# M   =    125.000
# muR =     62.500
# muF =     31.250
# Q   =     31.250
# p   =      5.000
# include_c1_squared =   F
# loop_mass  = t+b 
# alphas(MZ) =    0.11800
# alphas(M) =    0.11264
# alphas(muR) =    0.12516
# Rjet =      0.400
# order = NNLL
# pdf name and set = PDF4LHC15_nnlo_mc.LHgrid,    0
# matching scheme = a
# total cross sections [nb] at LO, NLOdiff, NNLOdiff, N3LOdiff =     0.012926    0.020318    0.009723    0.001827
#----------------------------------------------------------------------
# the lines that follow give the jet-veto efficiencies as a function of pt
#         pt            matched eff      resummed eff     fixed-order eff
   2.00000000E+001   4.36570906E-001   4.61565522E-001   4.49376256E-001
   2.50000000E+001   5.24916267E-001   5.30036384E-001   5.34025121E-001
   3.00000000E+001   5.94888399E-001   5.70885681E-001   6.00744622E-001
   3.50000000E+001   6.51370147E-001   5.93333960E-001   6.55033276E-001
   4.00000000E+001   6.97422911E-001   6.05197213E-001   6.99725943E-001
   4.50000000E+001   7.35620103E-001   6.11488944E-001   7.37098941E-001
   5.00000000E+001   7.67707661E-001   6.14923035E-001   7.68680039E-001
   5.50000000E+001   7.94846249E-001   6.16871025E-001   7.95502115E-001
   6.00000000E+001   8.18119475E-001   6.18020970E-001   8.18572628E-001
   6.50000000E+001   8.38222462E-001   6.18725811E-001   8.38542465E-001
   7.00000000E+001   8.55812980E-001   6.19172821E-001   8.56043590E-001
   7.50000000E+001   8.70953172E-001   6.19465088E-001   8.71122230E-001
   8.00000000E+001   8.84398049E-001   6.19661432E-001   8.84524140E-001
   8.50000000E+001   8.96281220E-001   6.19796555E-001   8.96376665E-001
   9.00000000E+001   9.06751627E-001   6.19891569E-001   9.06824852E-001
   9.50000000E+001   9.15936387E-001   6.19959679E-001   9.15993237E-001
   1.00000000E+002   9.24127920E-001   6.20009358E-001   9.24172569E-001
   1.05000000E+002   9.31499345E-001   6.20046165E-001   9.31534780E-001
   1.10000000E+002   9.38048507E-001   6.20073825E-001   9.38076899E-001
   1.15000000E+002   9.43964424E-001   6.20094881E-001   9.43987376E-001
   1.20000000E+002   9.49303160E-001   6.20111102E-001   9.49321865E-001
   1.25000000E+002   9.54061734E-001   6.20123733E-001   9.54077090E-001
   1.30000000E+002   9.58375303E-001   6.20133668E-001   9.58388001E-001
   1.35000000E+002   9.62257315E-001   6.20141555E-001   9.62267886E-001
   1.40000000E+002   9.65755484E-001   6.20147870E-001   9.65764337E-001
   1.45000000E+002   9.68988567E-001   6.20152966E-001   9.68996025E-001
   1.50000000E+002   9.71890558E-001   6.20157109E-001   9.71896874E-001
   1.55000000E+002   9.74529118E-001   6.20160501E-001   9.74534494E-001
   1.60000000E+002   9.76945539E-001   6.20163296E-001   9.76950138E-001
   1.65000000E+002   9.79132313E-001   6.20165613E-001   9.79136265E-001
   1.70000000E+002   9.81113668E-001   6.20167544E-001   9.81117078E-001
   1.75000000E+002   9.82917334E-001   6.20169163E-001   9.82920289E-001
   1.80000000E+002   9.84554734E-001   6.20170527E-001   9.84557304E-001
   1.85000000E+002   9.86040820E-001   6.20171681E-001   9.86043063E-001
   1.90000000E+002   9.87421066E-001   6.20172663E-001   9.87423030E-001
   1.95000000E+002   9.88685383E-001   6.20173501E-001   9.88687110E-001
   2.00000000E+002   9.89833538E-001   6.20174219E-001   9.89835060E-001
   2.05000000E+002   9.90895096E-001   6.20174837E-001   9.90896442E-001
   2.10000000E+002   9.91867186E-001   6.20175372E-001   9.91868380E-001
   2.15000000E+002   9.92724777E-001   6.20175835E-001   9.92725838E-001
   2.20000000E+002   9.93535990E-001   6.20176237E-001   9.93536937E-001
   2.25000000E+002   9.94273207E-001   6.20176589E-001   9.94274053E-001
   2.30000000E+002   9.94936755E-001   6.20176896E-001   9.94937514E-001
   2.35000000E+002   9.95556535E-001   6.20177166E-001   9.95557216E-001
   2.40000000E+002   9.96106824E-001   6.20177404E-001   9.96107437E-001
   2.45000000E+002   9.96609723E-001   6.20177613E-001   9.96610275E-001
