# ./jetvheto -in n3lo-fixed-order/H125-LHC13-R04-mb-0-mt-1725-xmur050-xmuf100-log.fxd -xQ 0.5 -out benchmarks-n3lo-smallR/H125-LHC13-R04-mb-0-mt-1725-xmur050-xmuf100-xQ050-N3LO+NNLLb.R0-1.5.res -scheme b -order 2 -ptmax 500.01 -small-r -fixed_order 3 -loop-mass t -R0 1.5
# process = H    
# collider = pp   
# rts =  13000.000
# M   =    125.000
# muR =     62.500
# muF =    125.000
# Q   =     62.500
# p   =      5.000
# include_c1_squared =   F
# loop_mass  = t   
# alphas(MZ) =    0.11800
# alphas(M) =    0.11264
# alphas(muR) =    0.12516
# Rjet =      0.400
# order = NNLL
# pdf name and set = PDF4LHC15_nnlo_mc.LHgrid,    0
# matching scheme = b
# total cross sections [nb] at LO, NLOdiff, NNLOdiff, N3LOdiff =     0.016868    0.020591    0.008553    0.000949
#----------------------------------------------------------------------
# the lines that follow give the jet-veto efficiencies as a function of pt
#         pt            matched eff      resummed eff     fixed-order eff
   2.00000000E+001   4.70899143E-001   5.21155567E-001   4.44147613E-001
   2.50000000E+001   5.52596459E-001   5.95618801E-001   5.31088854E-001
   3.00000000E+001   6.23515159E-001   6.47525457E-001   6.07119654E-001
   3.50000000E+001   6.78118246E-001   6.83250510E-001   6.65155664E-001
   4.00000000E+001   7.22203630E-001   7.07321857E-001   7.11953965E-001
   4.50000000E+001   7.57715704E-001   7.23059593E-001   7.49666337E-001
   5.00000000E+001   7.88093622E-001   7.32968456E-001   7.81846163E-001
   5.50000000E+001   8.14314923E-001   7.38950687E-001   8.09509340E-001
   6.00000000E+001   8.36280047E-001   7.42416077E-001   8.32598772E-001
   6.50000000E+001   8.56391704E-001   7.44352063E-001   8.53579085E-001
   7.00000000E+001   8.73179173E-001   7.45402743E-001   8.71029528E-001
   7.50000000E+001   8.86806819E-001   7.45960698E-001   8.85160222E-001
   8.00000000E+001   8.98854323E-001   7.46252075E-001   8.97586419E-001
   8.50000000E+001   9.09998346E-001   7.46401757E-001   9.09015500E-001
   9.00000000E+001   9.19298785E-001   7.46476991E-001   9.18531151E-001
   9.50000000E+001   9.28040264E-001   7.46513416E-001   9.27435725E-001
   1.00000000E+002   9.35096164E-001   7.46529783E-001   9.34616627E-001
   1.05000000E+002   9.41461667E-001   7.46535927E-001   9.41078136E-001
   1.10000000E+002   9.47252134E-001   7.46536999E-001   9.46942949E-001
   1.15000000E+002   9.52436874E-001   7.46535686E-001   9.52185702E-001
   1.20000000E+002   9.56875005E-001   7.46533379E-001   9.56669565E-001
   1.25000000E+002   9.60617047E-001   7.46530781E-001   9.60447873E-001
   1.30000000E+002   9.64626107E-001   7.46528234E-001   9.64485783E-001
   1.35000000E+002   9.68065653E-001   7.46525892E-001   9.67948544E-001
   1.40000000E+002   9.70850201E-001   7.46523810E-001   9.70751967E-001
   1.45000000E+002   9.73573375E-001   7.46521994E-001   9.73490463E-001
   1.50000000E+002   9.75806710E-001   7.46520428E-001   9.75736407E-001
   1.55000000E+002   9.78453828E-001   7.46519086E-001   9.78393871E-001
   1.60000000E+002   9.79920136E-001   7.46517938E-001   9.79868816E-001
   1.65000000E+002   9.81710877E-001   7.46516959E-001   9.81666733E-001
   1.70000000E+002   9.83223794E-001   7.46516123E-001   9.83185663E-001
   1.75000000E+002   9.84773155E-001   7.46515408E-001   9.84740083E-001
   1.80000000E+002   9.86185743E-001   7.46514797E-001   9.86156947E-001
   1.85000000E+002   9.87448014E-001   7.46514272E-001   9.87422854E-001
   1.90000000E+002   9.88148079E-001   7.46513820E-001   9.88126031E-001
   1.95000000E+002   9.89317530E-001   7.46513431E-001   9.89298131E-001
   2.00000000E+002   9.90270642E-001   7.46513095E-001   9.90253524E-001
   2.05000000E+002   9.91043611E-001   7.46512804E-001   9.91028463E-001
   2.10000000E+002   9.91730370E-001   7.46512550E-001   9.91716927E-001
   2.15000000E+002   9.92599333E-001   7.46512330E-001   9.92587368E-001
   2.20000000E+002   9.93122927E-001   7.46512137E-001   9.93112253E-001
   2.25000000E+002   9.93739111E-001   7.46511968E-001   9.93729564E-001
   2.30000000E+002   9.94316253E-001   7.46511820E-001   9.94307692E-001
   2.35000000E+002   9.94844645E-001   7.46511689E-001   9.94836951E-001
   2.40000000E+002   9.95124127E-001   7.46511574E-001   9.95117200E-001
   2.45000000E+002   9.95629158E-001   7.46511472E-001   9.95622905E-001
