# ./jetvheto -in n3lo-fixed-order/H125-LHC13-R04-mb-0-mt-1725-xmur100-xmuf100-log.fxd -xQ 0.75 -out benchmarks-n3lo-smallR/H125-LHC13-R04-mb-0-mt-1725-xmur100-xmuf100-xQ075-N3LO+NNLLb.R0-2.0.res -scheme b -order 2 -ptmax 500.01 -small-r -fixed_order 3 -loop-mass t -R0 2.0
# process = H    
# collider = pp   
# rts =  13000.000
# M   =    125.000
# muR =    125.000
# muF =    125.000
# Q   =     93.750
# p   =      5.000
# include_c1_squared =   F
# loop_mass  = t   
# alphas(MZ) =    0.11800
# alphas(M) =    0.11264
# alphas(muR) =    0.11264
# Rjet =      0.400
# order = NNLL
# pdf name and set = PDF4LHC15_nnlo_mc.LHgrid,    0
# matching scheme = b
# total cross sections [nb] at LO, NLOdiff, NNLOdiff, N3LOdiff =     0.013801    0.017514    0.010146    0.003834
#----------------------------------------------------------------------
# the lines that follow give the jet-veto efficiencies as a function of pt
#         pt            matched eff      resummed eff     fixed-order eff
   2.00000000E+001   4.71496699E-001   5.72071328E-001   4.21593782E-001
   2.50000000E+001   5.53799867E-001   6.54011248E-001   5.13960990E-001
   3.00000000E+001   6.23438705E-001   7.11657000E-001   5.91015610E-001
   3.50000000E+001   6.77974293E-001   7.51899220E-001   6.50645918E-001
   4.00000000E+001   7.22223897E-001   7.79550867E-001   6.98836983E-001
   4.50000000E+001   7.58074819E-001   7.98007717E-001   7.37928057E-001
   5.00000000E+001   7.88439790E-001   8.09695366E-001   7.71030473E-001
   5.50000000E+001   8.14330034E-001   8.16407067E-001   7.99275639E-001
   6.00000000E+001   8.36041592E-001   8.19502286E-001   8.23059681E-001
   6.50000000E+001   8.55433927E-001   8.20036804E-001   8.44243758E-001
   7.00000000E+001   8.71656872E-001   8.18839133E-001   8.62070819E-001
   7.50000000E+001   8.85068628E-001   8.16556282E-001   8.76925464E-001
   8.00000000E+001   8.96853584E-001   8.13685520E-001   8.89967148E-001
   8.50000000E+001   9.07537100E-001   8.10593760E-001   9.01728487E-001
   9.00000000E+001   9.16620442E-001   8.07536036E-001   9.11747759E-001
   9.50000000E+001   9.24994315E-001   8.04673284E-001   9.20909613E-001
   1.00000000E+002   9.31988492E-001   8.02093123E-001   9.28579537E-001
   1.05000000E+002   9.38299724E-001   7.99830063E-001   9.35454626E-001
   1.10000000E+002   9.44005882E-001   7.97883476E-001   9.41628668E-001
   1.15000000E+002   9.49166242E-001   7.96232039E-001   9.47177133E-001
   1.20000000E+002   9.53663427E-001   7.94844031E-001   9.51996886E-001
   1.25000000E+002   9.57572784E-001   7.93684400E-001   9.56173934E-001
   1.30000000E+002   9.61537170E-001   7.92718875E-001   9.60356305E-001
   1.35000000E+002   9.65007985E-001   7.91916135E-001   9.64008440E-001
   1.40000000E+002   9.67939828E-001   7.91248721E-001   9.67091995E-001
   1.45000000E+002   9.70757407E-001   7.90693202E-001   9.70034899E-001
   1.50000000E+002   9.73144877E-001   7.90229932E-001   9.72527497E-001
   1.55000000E+002   9.75743254E-001   7.89842630E-001   9.75212455E-001
   1.60000000E+002   9.77497421E-001   7.89517900E-001   9.77041107E-001
   1.65000000E+002   9.79392509E-001   7.89244774E-001   9.78998050E-001
   1.70000000E+002   9.81051639E-001   7.89014285E-001   9.80709596E-001
   1.75000000E+002   9.82668437E-001   7.88819112E-001   9.82370623E-001
   1.80000000E+002   9.84155351E-001   7.88653270E-001   9.83895197E-001
   1.85000000E+002   9.85492475E-001   7.88511865E-001   9.85264523E-001
   1.90000000E+002   9.86425467E-001   7.88390883E-001   9.86225466E-001
   1.95000000E+002   9.87632886E-001   7.88287024E-001   9.87456496E-001
   2.00000000E+002   9.88657038E-001   7.88197572E-001   9.88501106E-001
   2.05000000E+002   9.89538139E-001   7.88120280E-001   9.89399966E-001
   2.10000000E+002   9.90326873E-001   7.88053286E-001   9.90204115E-001
   2.15000000E+002   9.91205162E-001   7.87995041E-001   9.91095719E-001
   2.20000000E+002   9.91839513E-001   7.87944254E-001   9.91741805E-001
   2.25000000E+002   9.92509796E-001   7.87899843E-001   9.92422310E-001
   2.30000000E+002   9.93135117E-001   7.87860902E-001   9.93056602E-001
   2.35000000E+002   9.93714122E-001   7.87826665E-001   9.93643503E-001
   2.40000000E+002   9.94105366E-001   7.87796486E-001   9.94041766E-001
   2.45000000E+002   9.94632848E-001   7.87769819E-001   9.94575393E-001
