# ./jetvheto -in n3lo-fixed-order/H125-LHC13-R04-mb-0-mt-1725-xmur050-xmuf050-log.fxd -xQ 0.125 -out benchmarks-n3lo-smallR/H125-LHC13-R04-mb-0-mt-1725-xmur050-xmuf050-xQ125-N3LO+NNLLb.R0-2.0.res -scheme b -order 2 -ptmax 500.01 -small-r -fixed_order 3 -loop-mass t -R0 2.0
# process = H    
# collider = pp   
# rts =  13000.000
# M   =    125.000
# muR =     62.500
# muF =     62.500
# Q   =     15.625
# p   =      5.000
# include_c1_squared =   F
# loop_mass  = t   
# alphas(MZ) =    0.11800
# alphas(M) =    0.11264
# alphas(muR) =    0.12516
# Rjet =      0.400
# order = NNLL
# pdf name and set = PDF4LHC15_nnlo_mc.LHgrid,    0
# matching scheme = b
# total cross sections [nb] at LO, NLOdiff, NNLOdiff, N3LOdiff =     0.015885    0.020561    0.008998    0.001413
#----------------------------------------------------------------------
# the lines that follow give the jet-veto efficiencies as a function of pt
#         pt            matched eff      resummed eff     fixed-order eff
   2.00000000E+001   4.42787710E-001   4.41679570E-001   4.41643521E-001
   2.50000000E+001   5.29888920E-001   4.56099258E-001   5.29528045E-001
   3.00000000E+001   6.04225055E-001   4.60798571E-001   6.04131024E-001
   3.50000000E+001   6.63361450E-001   4.62559549E-001   6.63337130E-001
   4.00000000E+001   7.09309999E-001   4.63308832E-001   7.09302441E-001
   4.50000000E+001   7.49371526E-001   4.63662220E-001   7.49371437E-001
   5.00000000E+001   7.81701158E-001   4.63843210E-001   7.81702411E-001
   5.50000000E+001   8.09464089E-001   4.63942300E-001   8.09465789E-001
   6.00000000E+001   8.32377999E-001   4.63999609E-001   8.32379427E-001
   6.50000000E+001   8.53503149E-001   4.64034306E-001   8.53504482E-001
   7.00000000E+001   8.69853887E-001   4.64056143E-001   8.69854849E-001
   7.50000000E+001   8.84439847E-001   4.64070351E-001   8.84440584E-001
   8.00000000E+001   8.97582450E-001   4.64079865E-001   8.97583035E-001
   8.50000000E+001   9.09232856E-001   4.64086398E-001   9.09233323E-001
   9.00000000E+001   9.19502289E-001   4.64090984E-001   9.19502663E-001
   9.50000000E+001   9.27727994E-001   4.64094269E-001   9.27728280E-001
   1.00000000E+002   9.35562997E-001   4.64096662E-001   9.35563225E-001
   1.05000000E+002   9.41788191E-001   4.64098435E-001   9.41788367E-001
   1.10000000E+002   9.47502929E-001   4.64099766E-001   9.47503067E-001
   1.15000000E+002   9.52902888E-001   4.64100780E-001   9.52903001E-001
   1.20000000E+002   9.57766304E-001   4.64101560E-001   9.57766396E-001
   1.25000000E+002   9.61821706E-001   4.64102167E-001   9.61821780E-001
   1.30000000E+002   9.65320812E-001   4.64102645E-001   9.65320871E-001
   1.35000000E+002   9.68789870E-001   4.64103024E-001   9.68789919E-001
   1.40000000E+002   9.71951310E-001   4.64103328E-001   9.71951352E-001
   1.45000000E+002   9.74702849E-001   4.64103573E-001   9.74702884E-001
   1.50000000E+002   9.76854419E-001   4.64103772E-001   9.76854447E-001
   1.55000000E+002   9.79289577E-001   4.64103935E-001   9.79289601E-001
   1.60000000E+002   9.81470658E-001   4.64104070E-001   9.81470679E-001
   1.65000000E+002   9.82816902E-001   4.64104181E-001   9.82816919E-001
   1.70000000E+002   9.84547432E-001   4.64104274E-001   9.84547446E-001
   1.75000000E+002   9.86142514E-001   4.64104352E-001   9.86142527E-001
   1.80000000E+002   9.87365616E-001   4.64104417E-001   9.87365627E-001
   1.85000000E+002   9.88489560E-001   4.64104473E-001   9.88489569E-001
   1.90000000E+002   9.89639793E-001   4.64104520E-001   9.89639801E-001
   1.95000000E+002   9.90701715E-001   4.64104560E-001   9.90701722E-001
   2.00000000E+002   9.91640526E-001   4.64104595E-001   9.91640532E-001
   2.05000000E+002   9.92381266E-001   4.64104624E-001   9.92381271E-001
   2.10000000E+002   9.93124351E-001   4.64104650E-001   9.93124356E-001
   2.15000000E+002   9.93702162E-001   4.64104672E-001   9.93702166E-001
   2.20000000E+002   9.94523966E-001   4.64104692E-001   9.94523970E-001
   2.25000000E+002   9.94951212E-001   4.64104709E-001   9.94951215E-001
   2.30000000E+002   9.95476720E-001   4.64104723E-001   9.95476723E-001
   2.35000000E+002   9.95859516E-001   4.64104736E-001   9.95859519E-001
   2.40000000E+002   9.96276752E-001   4.64104748E-001   9.96276754E-001
   2.45000000E+002   9.96764477E-001   4.64104758E-001   9.96764480E-001
