# ./jetvheto -in n3lo-fixed-order/H125-LHC13-R04-mb-475-mt-1725-xmur050-xmuf050-log.fxd -xQ 1.0 -out benchmarks-n3lo-smallR/H125-LHC13-R04-mb-475-mt-1725-xmur050-xmuf050-xQ100-N3LO+NNLLb.R0-0.5.res -scheme b -order 2 -ptmax 500.01 -fixed_order 3 -small-r -loop-mass t+b -R0 0.5
# process = H    
# collider = pp   
# rts =  13000.000
# M   =    125.000
# muR =     62.500
# muF =     62.500
# Q   =    125.000
# p   =      5.000
# include_c1_squared =   F
# loop_mass  = t+b 
# alphas(MZ) =    0.11800
# alphas(M) =    0.11264
# alphas(muR) =    0.12516
# Rjet =      0.400
# order = NNLL
# pdf name and set = PDF4LHC15_nnlo_mc.LHgrid,    0
# matching scheme = b
# total cross sections [nb] at LO, NLOdiff, NNLOdiff, N3LOdiff =     0.014147    0.020254    0.008998    0.001413
#----------------------------------------------------------------------
# the lines that follow give the jet-veto efficiencies as a function of pt
#         pt            matched eff      resummed eff     fixed-order eff
   2.00000000E+001   4.62532271E-001   5.66967137E-001   4.22880362E-001
   2.50000000E+001   5.48259677E-001   6.47653774E-001   5.10871357E-001
   3.00000000E+001   6.21040675E-001   7.03334216E-001   5.86554172E-001
   3.50000000E+001   6.78912546E-001   7.41377472E-001   6.46974526E-001
   4.00000000E+001   7.23411697E-001   7.66881632E-001   6.94053894E-001
   4.50000000E+001   7.62524945E-001   7.83317307E-001   7.35572065E-001
   5.00000000E+001   7.93494437E-001   7.93113936E-001   7.68984657E-001
   5.50000000E+001   8.20339025E-001   7.98020251E-001   7.98072300E-001
   6.00000000E+001   8.42110709E-001   7.99310821E-001   8.22057983E-001
   6.50000000E+001   8.62330966E-001   7.97940886E-001   8.44160448E-001
   7.00000000E+001   8.77595187E-001   7.94642957E-001   8.61397413E-001
   7.50000000E+001   8.91235257E-001   7.89981534E-001   8.76789719E-001
   8.00000000E+001   9.03581209E-001   7.84401861E-001   8.90691953E-001
   8.50000000E+001   9.14526917E-001   7.78261441E-001   9.03050366E-001
   9.00000000E+001   9.24085487E-001   7.71848065E-001   9.13896477E-001
   9.50000000E+001   9.31586753E-001   7.65391023E-001   9.22639584E-001
   1.00000000E+002   9.38796108E-001   7.59071250E-001   9.30924075E-001
   1.05000000E+002   9.44479945E-001   7.53025545E-001   9.37618957E-001
   1.10000000E+002   9.49698291E-001   7.47351478E-001   9.43720915E-001
   1.15000000E+002   9.54715586E-001   7.42112646E-001   9.49502090E-001
   1.20000000E+002   9.59219450E-001   7.37342152E-001   9.54678868E-001
   1.25000000E+002   9.62938793E-001   7.33049037E-001   9.59003817E-001
   1.30000000E+002   9.66169344E-001   7.29223803E-001   9.62764111E-001
   1.35000000E+002   9.69447998E-001   7.25843428E-001   9.66490458E-001
   1.40000000E+002   9.72449918E-001   7.22876030E-001   9.69880698E-001
   1.45000000E+002   9.75037492E-001   7.20284783E-001   9.72807360E-001
   1.50000000E+002   9.77033168E-001   7.18030974E-001   9.75102905E-001
   1.55000000E+002   9.79391800E-001   7.16076246E-001   9.77708768E-001
   1.60000000E+002   9.81507912E-001   7.14384106E-001   9.80038790E-001
   1.65000000E+002   9.82766145E-001   7.12920789E-001   9.81490611E-001
   1.70000000E+002   9.84440681E-001   7.11655823E-001   9.83324317E-001
   1.75000000E+002   9.86028737E-001   7.10562125E-001   9.85049293E-001
   1.80000000E+002   9.87226555E-001   7.09615871E-001   9.86367565E-001
   1.85000000E+002   9.88339071E-001   7.08796323E-001   9.87583960E-001
   1.90000000E+002   9.89486241E-001   7.08085557E-001   9.88819869E-001
   1.95000000E+002   9.90547722E-001   7.07468157E-001   9.89958231E-001
   2.00000000E+002   9.91483895E-001   7.06930913E-001   9.90961409E-001
   2.05000000E+002   9.92226286E-001   7.06462531E-001   9.91762726E-001
   2.10000000E+002   9.92973506E-001   7.06053372E-001   9.92560879E-001
   2.15000000E+002   9.93555784E-001   7.05695211E-001   9.93188169E-001
   2.20000000E+002   9.94401826E-001   7.05381033E-001   9.94072436E-001
   2.25000000E+002   9.94828722E-001   7.05104853E-001   9.94534058E-001
   2.30000000E+002   9.95359218E-001   7.04861560E-001   9.95094697E-001
   2.35000000E+002   9.95750283E-001   7.04646784E-001   9.95512527E-001
   2.40000000E+002   9.96174912E-001   7.04456784E-001   9.95960635E-001
   2.45000000E+002   9.96668296E-001   7.04288355E-001   9.96474558E-001
