# ./jetvheto -in n3lo-fixed-order/H125-LHC13-R04-mb-0-mt-1725-xmur050-xmuf100-log.fxd -xQ 0.5 -out benchmarks-n3lo-smallR/H125-LHC13-R04-mb-0-mt-1725-xmur050-xmuf100-xQ050-NNLO+NNLLb.R0-1.5.res -scheme b -order 2 -ptmax 500.01 -small-r -fixed_order 2 -loop-mass t -R0 1.5
# process = H    
# collider = pp   
# rts =  13000.000
# M   =    125.000
# muR =     62.500
# muF =    125.000
# Q   =     62.500
# p   =      5.000
# include_c1_squared =   F
# loop_mass  = t   
# alphas(MZ) =    0.11800
# alphas(M) =    0.11264
# alphas(muR) =    0.12516
# Rjet =      0.400
# order = NNLL
# pdf name and set = PDF4LHC15_nnlo_mc.LHgrid,    0
# matching scheme = b
# total cross sections [nb] at LO, NLOdiff, NNLOdiff, N3LOdiff =     0.016868    0.020591    0.008553    0.000949
#----------------------------------------------------------------------
# the lines that follow give the jet-veto efficiencies as a function of pt
#         pt            matched eff      resummed eff     fixed-order eff
   2.00000000E+001   4.50001975E-001   5.21155567E-001   3.53874297E-001
   2.50000000E+001   5.30928346E-001   5.95618801E-001   4.59741637E-001
   3.00000000E+001   5.95694585E-001   6.47525457E-001   5.41840375E-001
   3.50000000E+001   6.48427300E-001   6.83250510E-001   6.07203422E-001
   4.00000000E+001   6.92036950E-001   7.07321857E-001   6.60382096E-001
   4.50000000E+001   7.28342586E-001   7.23059593E-001   7.04076620E-001
   5.00000000E+001   7.59138882E-001   7.32968456E-001   7.40608827E-001
   5.50000000E+001   7.85453029E-001   7.38950687E-001   7.71364670E-001
   6.00000000E+001   8.08368536E-001   7.42416077E-001   7.97692154E-001
   6.50000000E+001   8.28392144E-001   7.44352063E-001   8.20307414E-001
   7.00000000E+001   8.45869752E-001   7.45402743E-001   8.39737032E-001
   7.50000000E+001   8.61391696E-001   7.45960698E-001   8.56718559E-001
   8.00000000E+001   8.75163761E-001   7.46252075E-001   8.71580854E-001
   8.50000000E+001   8.87282188E-001   7.46401757E-001   8.84514754E-001
   9.00000000E+001   8.98135847E-001   7.46476991E-001   8.95980819E-001
   9.50000000E+001   9.07735862E-001   7.46513416E-001   9.06043369E-001
   1.00000000E+002   9.16333341E-001   7.46529783E-001   9.14992506E-001
   1.05000000E+002   9.24029313E-001   7.46535927E-001   9.22958070E-001
   1.10000000E+002   9.30841132E-001   7.46536999E-001   9.29978343E-001
   1.15000000E+002   9.37036491E-001   7.46535686E-001   9.36336055E-001
   1.20000000E+002   9.42556324E-001   7.46533379E-001   9.41983453E-001
   1.25000000E+002   9.47560762E-001   7.46530781E-001   9.47088902E-001
   1.30000000E+002   9.52080034E-001   7.46528234E-001   9.51688757E-001
   1.35000000E+002   9.56160985E-001   7.46525892E-001   9.55834505E-001
   1.40000000E+002   9.59822249E-001   7.46523810E-001   9.59548192E-001
   1.45000000E+002   9.63214913E-001   7.46521994E-001   9.62983574E-001
   1.50000000E+002   9.66215027E-001   7.46520428E-001   9.66018715E-001
   1.55000000E+002   9.68989468E-001   7.46519086E-001   9.68822038E-001
   1.60000000E+002   9.71529339E-001   7.46517938E-001   9.71385869E-001
   1.65000000E+002   9.73818251E-001   7.46516959E-001   9.73694766E-001
   1.70000000E+002   9.75927559E-001   7.46516123E-001   9.75820827E-001
   1.75000000E+002   9.77813800E-001   7.46515408E-001   9.77721179E-001
   1.80000000E+002   9.79566299E-001   7.46514797E-001   9.79485619E-001
   1.85000000E+002   9.81148887E-001   7.46514272E-001   9.81078354E-001
   1.90000000E+002   9.82616252E-001   7.46513820E-001   9.82554378E-001
   1.95000000E+002   9.83978420E-001   7.46513431E-001   9.83923965E-001
   2.00000000E+002   9.85205351E-001   7.46513095E-001   9.85157277E-001
   2.05000000E+002   9.86353055E-001   7.46512804E-001   9.86310488E-001
   2.10000000E+002   9.87387067E-001   7.46512550E-001   9.87349271E-001
   2.15000000E+002   9.88323708E-001   7.46512330E-001   9.88290057E-001
   2.20000000E+002   9.89208657E-001   7.46512137E-001   9.89178618E-001
   2.25000000E+002   9.90015197E-001   7.46511968E-001   9.89988317E-001
   2.30000000E+002   9.90761199E-001   7.46511820E-001   9.90737088E-001
   2.35000000E+002   9.91464962E-001   7.46511689E-001   9.91443286E-001
   2.40000000E+002   9.92089737E-001   7.46511574E-001   9.92070208E-001
   2.45000000E+002   9.92680639E-001   7.46511472E-001   9.92663007E-001
