# ./jetvheto -in n3lo-fixed-order/H125-LHC13-R04-mb-475-mt-1725-xmur200-xmuf200-log.fxd -xQ 0.25 -out benchmarks-n3lo-smallR/H125-LHC13-R04-mb-475-mt-1725-xmur200-xmuf200-xQ025-N3LO+NNLLa.R0-1.5.res -scheme a -order 2 -ptmax 500.01 -fixed_order 3 -small-r -loop-mass t+b -R0 1.5
# process = H    
# collider = pp   
# rts =  13000.000
# M   =    125.000
# muR =    250.000
# muF =    250.000
# Q   =     31.250
# p   =      5.000
# include_c1_squared =   F
# loop_mass  = t+b 
# alphas(MZ) =    0.11800
# alphas(M) =    0.11264
# alphas(muR) =    0.10244
# Rjet =      0.400
# order = NNLL
# pdf name and set = PDF4LHC15_nnlo_mc.LHgrid,    0
# matching scheme = a
# total cross sections [nb] at LO, NLOdiff, NNLOdiff, N3LOdiff =     0.010658    0.014649    0.010464    0.005358
#----------------------------------------------------------------------
# the lines that follow give the jet-veto efficiencies as a function of pt
#         pt            matched eff      resummed eff     fixed-order eff
   2.00000000E+001   4.66127439E-001   5.67048651E-001   4.72417372E-001
   2.50000000E+001   5.53586949E-001   6.38515056E-001   5.58640123E-001
   3.00000000E+001   6.21179451E-001   6.80193668E-001   6.24485219E-001
   3.50000000E+001   6.76075861E-001   7.02743236E-001   6.78169499E-001
   4.00000000E+001   7.20568577E-001   7.14544407E-001   7.21886815E-001
   4.50000000E+001   7.56349752E-001   7.20767461E-001   7.57184541E-001
   5.00000000E+001   7.87637925E-001   7.24152917E-001   7.88190304E-001
   5.50000000E+001   8.13049078E-001   7.26069698E-001   8.13419167E-001
   6.00000000E+001   8.34712654E-001   7.27199972E-001   8.34967174E-001
   6.50000000E+001   8.53132032E-001   7.27892292E-001   8.53310754E-001
   7.00000000E+001   8.69806765E-001   7.28331176E-001   8.69935842E-001
   7.50000000E+001   8.83620045E-001   7.28618054E-001   8.83714379E-001
   8.00000000E+001   8.95654063E-001   7.28810742E-001   8.95724159E-001
   8.50000000E+001   9.06365884E-001   7.28943333E-001   9.06418883E-001
   9.00000000E+001   9.15526423E-001   7.29036559E-001   9.15566959E-001
   9.50000000E+001   9.24083950E-001   7.29103383E-001   9.24115484E-001
   1.00000000E+002   9.31315147E-001   7.29152122E-001   9.31339889E-001
   1.05000000E+002   9.37689938E-001   7.29188231E-001   9.37709541E-001
   1.10000000E+002   9.43217940E-001   7.29215366E-001   9.43233610E-001
   1.15000000E+002   9.48456196E-001   7.29236023E-001   9.48468868E-001
   1.20000000E+002   9.53201480E-001   7.29251935E-001   9.53211816E-001
   1.25000000E+002   9.57155566E-001   7.29264326E-001   9.57164043E-001
   1.30000000E+002   9.60917198E-001   7.29274072E-001   9.60924212E-001
   1.35000000E+002   9.64147594E-001   7.29281809E-001   9.64153428E-001
   1.40000000E+002   9.67375067E-001   7.29288003E-001   9.67379962E-001
   1.45000000E+002   9.69953997E-001   7.29293002E-001   9.69958117E-001
   1.50000000E+002   9.72483302E-001   7.29297067E-001   9.72486795E-001
   1.55000000E+002   9.74736862E-001   7.29300394E-001   9.74739837E-001
   1.60000000E+002   9.76713550E-001   7.29303136E-001   9.76716094E-001
   1.65000000E+002   9.78435956E-001   7.29305408E-001   9.78438140E-001
   1.70000000E+002   9.80252705E-001   7.29307303E-001   9.80254593E-001
   1.75000000E+002   9.81737275E-001   7.29308891E-001   9.81738911E-001
   1.80000000E+002   9.83340255E-001   7.29310229E-001   9.83341681E-001
   1.85000000E+002   9.84502253E-001   7.29311361E-001   9.84503497E-001
   1.90000000E+002   9.85677489E-001   7.29312324E-001   9.85678580E-001
   1.95000000E+002   9.86726394E-001   7.29313146E-001   9.86727353E-001
   2.00000000E+002   9.87866333E-001   7.29313851E-001   9.87867180E-001
   2.05000000E+002   9.88666161E-001   7.29314457E-001   9.88666910E-001
   2.10000000E+002   9.89427769E-001   7.29314981E-001   9.89428433E-001
   2.15000000E+002   9.90241817E-001   7.29315435E-001   9.90242408E-001
   2.20000000E+002   9.90995276E-001   7.29315830E-001   9.90995804E-001
   2.25000000E+002   9.91586500E-001   7.29316175E-001   9.91586972E-001
   2.30000000E+002   9.92154527E-001   7.29316477E-001   9.92154949E-001
   2.35000000E+002   9.92740898E-001   7.29316741E-001   9.92741278E-001
   2.40000000E+002   9.93250916E-001   7.29316974E-001   9.93251258E-001
   2.45000000E+002   9.93744271E-001   7.29317180E-001   9.93744580E-001
