# ./jetvheto -in n3lo-fixed-order/H125-LHC13-R04-heft-xmur100-xmuf100-log.fxd -xQ 0.333 -out benchmarks-n3lo-smallR/H125-LHC13-R04-heft-xmur100-xmuf100-xQ033-N3LO+NNLLa.R0-0.5.res -scheme a -order 2 -ptmax 500.01 -fixed_order 3 -small-r -R0 0.5
# process = H    
# collider = pp   
# rts =  13000.000
# M   =    125.000
# muR =    125.000
# muF =    125.000
# Q   =     41.625
# p   =      5.000
# include_c1_squared =   F
# loop_mass  = none
# alphas(MZ) =    0.11800
# alphas(M) =    0.11264
# alphas(muR) =    0.11264
# Rjet =      0.400
# order = NNLL
# pdf name and set = PDF4LHC15_nnlo_mc.LHgrid,    0
# matching scheme = a
# total cross sections [nb] at LO, NLOdiff, NNLOdiff, N3LOdiff =     0.012945    0.016716    0.010146    0.003834
#----------------------------------------------------------------------
# the lines that follow give the jet-veto efficiencies as a function of pt
#         pt            matched eff      resummed eff     fixed-order eff
   2.00000000E+001   4.56621279E-001   5.19342417E-001   4.60774143E-001
   2.50000000E+001   5.42683325E-001   5.98986643E-001   5.45786875E-001
   3.00000000E+001   6.14689679E-001   6.52759576E-001   6.17068533E-001
   3.50000000E+001   6.70687408E-001   6.87541150E-001   6.72113648E-001
   4.00000000E+001   7.15864233E-001   7.09098429E-001   7.16667414E-001
   4.50000000E+001   7.52429632E-001   7.22067964E-001   7.52873009E-001
   5.00000000E+001   7.83301710E-001   7.29793084E-001   7.83562730E-001
   5.50000000E+001   8.09618780E-001   7.34430092E-001   8.09784074E-001
   6.00000000E+001   8.31763751E-001   7.37266959E-001   8.31871310E-001
   6.50000000E+001   8.51523409E-001   7.39045531E-001   8.51599627E-001
   7.00000000E+001   8.68164808E-001   7.40190006E-001   8.68219188E-001
   7.50000000E+001   8.81977699E-001   7.40945456E-001   8.82015993E-001
   8.00000000E+001   8.94097366E-001   7.41456213E-001   8.94125116E-001
   8.50000000E+001   9.05048207E-001   7.41809254E-001   9.05069202E-001
   9.00000000E+001   9.14408783E-001   7.42058260E-001   9.14424589E-001
   9.50000000E+001   9.22971465E-001   7.42237148E-001   9.22983790E-001
   1.00000000E+002   9.30113140E-001   7.42367831E-001   9.30122626E-001
   1.05000000E+002   9.36521995E-001   7.42464766E-001   9.36529413E-001
   1.10000000E+002   9.42311218E-001   7.42537674E-001   9.42317122E-001
   1.15000000E+002   9.47494262E-001   7.42593213E-001   9.47498999E-001
   1.20000000E+002   9.52008872E-001   7.42636018E-001   9.52012685E-001
   1.25000000E+002   9.55910133E-001   7.42669365E-001   9.55913202E-001
   1.30000000E+002   9.59810661E-001   7.42695601E-001   9.59813209E-001
   1.35000000E+002   9.63252571E-001   7.42716434E-001   9.63254687E-001
   1.40000000E+002   9.66125033E-001   7.42733117E-001   9.66126784E-001
   1.45000000E+002   9.68888027E-001   7.42746583E-001   9.68889494E-001
   1.50000000E+002   9.71224129E-001   7.42757532E-001   9.71225357E-001
   1.55000000E+002   9.73730751E-001   7.42766497E-001   9.73731807E-001
   1.60000000E+002   9.75443466E-001   7.42773884E-001   9.75444349E-001
   1.65000000E+002   9.77282532E-001   7.42780008E-001   9.77283286E-001
   1.70000000E+002   9.78903976E-001   7.42785113E-001   9.78904621E-001
   1.75000000E+002   9.80485289E-001   7.42789393E-001   9.80485847E-001
   1.80000000E+002   9.81940704E-001   7.42792998E-001   9.81941189E-001
   1.85000000E+002   9.83250704E-001   7.42796050E-001   9.83251126E-001
   1.90000000E+002   9.84170161E-001   7.42798645E-001   9.84170523E-001
   1.95000000E+002   9.85361994E-001   7.42800861E-001   9.85362313E-001
   2.00000000E+002   9.86383125E-001   7.42802760E-001   9.86383405E-001
   2.05000000E+002   9.87259819E-001   7.42804395E-001   9.87260065E-001
   2.10000000E+002   9.88056077E-001   7.42805808E-001   9.88056295E-001
   2.15000000E+002   9.88934031E-001   7.42807032E-001   9.88934225E-001
   2.20000000E+002   9.89579565E-001   7.42808097E-001   9.89579737E-001
   2.25000000E+002   9.90261000E-001   7.42809026E-001   9.90261153E-001
   2.30000000E+002   9.90900784E-001   7.42809839E-001   9.90900921E-001
   2.35000000E+002   9.91501683E-001   7.42810553E-001   9.91501805E-001
   2.40000000E+002   9.91923150E-001   7.42811181E-001   9.91923260E-001
   2.45000000E+002   9.92472912E-001   7.42811735E-001   9.92473011E-001
