# ./jetvheto -in n3lo-fixed-order/H125-LHC13-R04-mb-475-mt-1725-xmur025-xmuf050-log.fxd -xQ 0.5 -out benchmarks-n3lo-smallR/H125-LHC13-R04-mb-475-mt-1725-xmur025-xmuf050-xQ050-N3LO+NNLLb.R0-2.0.res -scheme b -order 2 -ptmax 500.01 -fixed_order 3 -small-r -loop-mass t+b -R0 2.0
# process = H    
# collider = pp   
# rts =  13000.000
# M   =    125.000
# muR =     31.250
# muF =     62.500
# Q   =     62.500
# p   =      5.000
# include_c1_squared =   F
# loop_mass  = t+b 
# alphas(MZ) =    0.11800
# alphas(M) =    0.11264
# alphas(muR) =    0.14091
# Rjet =      0.400
# order = NNLL
# pdf name and set = PDF4LHC15_nnlo_mc.LHgrid,    0
# matching scheme = b
# total cross sections [nb] at LO, NLOdiff, NNLOdiff, N3LOdiff =     0.017683    0.024805    0.005009   -0.002663
#----------------------------------------------------------------------
# the lines that follow give the jet-veto efficiencies as a function of pt
#         pt            matched eff      resummed eff     fixed-order eff
   2.00000000E+001   4.99595996E-001   4.93938207E-001   4.77630795E-001
   2.50000000E+001   5.76499246E-001   5.50948105E-001   5.55490405E-001
   3.00000000E+001   6.44678640E-001   5.90111155E-001   6.27139586E-001
   3.50000000E+001   6.98314645E-001   6.16604134E-001   6.83914005E-001
   4.00000000E+001   7.38139581E-001   6.34062821E-001   7.26455264E-001
   4.50000000E+001   7.74746476E-001   6.45120489E-001   7.65589394E-001
   5.00000000E+001   8.03064352E-001   6.51765539E-001   7.95971836E-001
   5.50000000E+001   8.28411984E-001   6.55508845E-001   8.23001148E-001
   6.00000000E+001   8.48716738E-001   6.57458970E-001   8.44619420E-001
   6.50000000E+001   8.68718614E-001   6.58374719E-001   8.65621325E-001
   7.00000000E+001   8.82906457E-001   6.58737086E-001   8.80565053E-001
   7.50000000E+001   8.96080324E-001   6.58826851E-001   8.94304462E-001
   8.00000000E+001   9.08338581E-001   6.58795722E-001   9.06981466E-001
   8.50000000E+001   9.19359597E-001   6.58719869E-001   9.18314335E-001
   9.00000000E+001   9.29078904E-001   6.58634914E-001   9.28266666E-001
   9.50000000E+001   9.36345021E-001   6.58555778E-001   9.35709992E-001
   1.00000000E+002   9.43638078E-001   6.58487506E-001   9.43136433E-001
   1.05000000E+002   9.49049790E-001   6.58430769E-001   9.48650978E-001
   1.10000000E+002   9.54120546E-001   6.58384497E-001   9.53800536E-001
   1.15000000E+002   9.59178465E-001   6.58347096E-001   9.58919523E-001
   1.20000000E+002   9.63721742E-001   6.58316961E-001   9.63510598E-001
   1.25000000E+002   9.67234046E-001   6.58292679E-001   9.67060783E-001
   1.30000000E+002   9.70229196E-001   6.58273067E-001   9.70086131E-001
   1.35000000E+002   9.73476536E-001   6.58257173E-001   9.73357507E-001
   1.40000000E+002   9.76437171E-001   6.58244238E-001   9.76337556E-001
   1.45000000E+002   9.78901444E-001   6.58233661E-001   9.78817643E-001
   1.50000000E+002   9.80524180E-001   6.58224970E-001   9.80453348E-001
   1.55000000E+002   9.82871463E-001   6.58217794E-001   9.82811216E-001
   1.60000000E+002   9.84948008E-001   6.58211840E-001   9.84896523E-001
   1.65000000E+002   9.85748586E-001   6.58206875E-001   9.85704461E-001
   1.70000000E+002   9.87321735E-001   6.58202717E-001   9.87283697E-001
   1.75000000E+002   9.88824441E-001   6.58199217E-001   9.88791511E-001
   1.80000000E+002   9.89803178E-001   6.58196259E-001   9.89774582E-001
   1.85000000E+002   9.90699657E-001   6.58193748E-001   9.90674731E-001
   1.90000000E+002   9.91727905E-001   6.58191608E-001   9.91706092E-001
   1.95000000E+002   9.92689134E-001   6.58189777E-001   9.92669982E-001
   2.00000000E+002   9.93509479E-001   6.58188204E-001   9.93492612E-001
   2.05000000E+002   9.94060706E-001   6.58186849E-001   9.94045808E-001
   2.10000000E+002   9.94692970E-001   6.58185676E-001   9.94679771E-001
   2.15000000E+002   9.95076140E-001   6.58184659E-001   9.95064416E-001
   2.20000000E+002   9.95938837E-001   6.58183773E-001   9.95928387E-001
   2.25000000E+002   9.96179574E-001   6.58182999E-001   9.96170247E-001
   2.30000000E+002   9.96590735E-001   6.58182322E-001   9.96582383E-001
   2.35000000E+002   9.96836270E-001   6.58181727E-001   9.96828776E-001
   2.40000000E+002   9.97159836E-001   6.58181203E-001   9.97153096E-001
   2.45000000E+002   9.97633190E-001   6.58180741E-001   9.97627113E-001
