# ./jetvheto -in n3lo-fixed-order/H125-LHC13-R04-mb-0-mt-1725-xmur050-xmuf050-log.fxd -xQ 0.75 -out benchmarks-n3lo-smallR/H125-LHC13-R04-mb-0-mt-1725-xmur050-xmuf050-xQ075-N3LO+NNLLb.R0-2.0.res -scheme b -order 2 -ptmax 500.01 -small-r -fixed_order 3 -loop-mass t -R0 2.0
# process = H    
# collider = pp   
# rts =  13000.000
# M   =    125.000
# muR =     62.500
# muF =     62.500
# Q   =     93.750
# p   =      5.000
# include_c1_squared =   F
# loop_mass  = t   
# alphas(MZ) =    0.11800
# alphas(M) =    0.11264
# alphas(muR) =    0.12516
# Rjet =      0.400
# order = NNLL
# pdf name and set = PDF4LHC15_nnlo_mc.LHgrid,    0
# matching scheme = b
# total cross sections [nb] at LO, NLOdiff, NNLOdiff, N3LOdiff =     0.015885    0.020561    0.008998    0.001413
#----------------------------------------------------------------------
# the lines that follow give the jet-veto efficiencies as a function of pt
#         pt            matched eff      resummed eff     fixed-order eff
   2.00000000E+001   5.03663644E-001   5.83311940E-001   4.41643521E-001
   2.50000000E+001   5.82130159E-001   6.55710979E-001   5.29528045E-001
   3.00000000E+001   6.48265259E-001   7.05765214E-001   6.04131024E-001
   3.50000000E+001   7.00730693E-001   7.40046359E-001   6.63337130E-001
   4.00000000E+001   7.41073823E-001   7.63017033E-001   7.09302441E-001
   4.50000000E+001   7.76340151E-001   7.77789687E-001   7.49371437E-001
   5.00000000E+001   8.04540512E-001   7.86585245E-001   7.81702411E-001
   5.50000000E+001   8.28772988E-001   7.91040830E-001   8.09465789E-001
   6.00000000E+001   8.48619700E-001   7.92382336E-001   8.32379427E-001
   6.50000000E+001   8.67178567E-001   7.91558376E-001   8.53504482E-001
   7.00000000E+001   8.81251063E-001   7.89313292E-001   8.69854849E-001
   7.50000000E+001   8.93915456E-001   7.86228474E-001   8.84440584E-001
   8.00000000E+001   9.05449675E-001   7.82748724E-001   8.97583035E-001
   8.50000000E+001   9.15752106E-001   7.79198184E-001   9.09233323E-001
   9.00000000E+001   9.24897319E-001   7.75796622E-001   9.19502663E-001
   9.50000000E+001   9.32170574E-001   7.72676077E-001   9.27728280E-001
   1.00000000E+002   9.39232637E-001   7.69902319E-001   9.35563225E-001
   1.05000000E+002   9.44811968E-001   7.67493292E-001   9.41788367E-001
   1.10000000E+002   9.50002604E-001   7.65435994E-001   9.47503067E-001
   1.15000000E+002   9.54978324E-001   7.63699916E-001   9.52903001E-001
   1.20000000E+002   9.59495234E-001   7.62246694E-001   9.57766396E-001
   1.25000000E+002   9.63264300E-001   7.61036317E-001   9.61821780E-001
   1.30000000E+002   9.66528551E-001   7.60030973E-001   9.65320871E-001
   1.35000000E+002   9.69807188E-001   7.59196742E-001   9.68789919E-001
   1.40000000E+002   9.72811753E-001   7.58504213E-001   9.71951352E-001
   1.45000000E+002   9.75433061E-001   7.57928502E-001   9.74702884E-001
   1.50000000E+002   9.77475449E-001   7.57448874E-001   9.76854447E-001
   1.55000000E+002   9.79821528E-001   7.57048223E-001   9.79289601E-001
   1.60000000E+002   9.81928001E-001   7.56712528E-001   9.81470679E-001
   1.65000000E+002   9.83210161E-001   7.56430335E-001   9.82816919E-001
   1.70000000E+002   9.84887924E-001   7.56192305E-001   9.84547446E-001
   1.75000000E+002   9.86438441E-001   7.55990823E-001   9.86142527E-001
   1.80000000E+002   9.87623355E-001   7.55819677E-001   9.87365627E-001
   1.85000000E+002   9.88714806E-001   7.55673789E-001   9.88489569E-001
   1.90000000E+002   9.89837442E-001   7.55548999E-001   9.89639801E-001
   1.95000000E+002   9.90875693E-001   7.55441894E-001   9.90701722E-001
   2.00000000E+002   9.91794095E-001   7.55349662E-001   9.91640532E-001
   2.05000000E+002   9.92517123E-001   7.55269978E-001   9.92381271E-001
   2.10000000E+002   9.93244927E-001   7.55200920E-001   9.93124356E-001
   2.15000000E+002   9.93809391E-001   7.55140888E-001   9.93702166E-001
   2.20000000E+002   9.94619739E-001   7.55088546E-001   9.94523970E-001
   2.25000000E+002   9.95036794E-001   7.55042781E-001   9.94951215E-001
   2.30000000E+002   9.95553437E-001   7.55002654E-001   9.95476723E-001
   2.35000000E+002   9.95928411E-001   7.54967377E-001   9.95859519E-001
   2.40000000E+002   9.96338779E-001   7.54936284E-001   9.96276754E-001
   2.45000000E+002   9.96820475E-001   7.54908809E-001   9.96764480E-001
