# python build-Q2-histos.py --mtQ1file ../../JetVHeto/benchmarks-n3lo-smallR/H125-LHC13-R04-mb-0-mt-1725-xmur025-xmuf025-xQ050-N3LO+NNLLb.R0-1.0.res --mtQ2file ../../JetVHeto/benchmarks-n3lo-smallR/H125-LHC13-R04-mb-0-mt-1725-xmur025-xmuf025-xQ0625-N3LO+NNLLb.R0-1.0.res --mtmbQ2file ../../JetVHeto/benchmarks-n3lo-smallR/H125-LHC13-R04-mb-475-mt-1725-xmur025-xmuf025-xQ0625-N3LO+NNLLb.R0-1.0.res
# process = H    
# collider = pp   
# rts =  13000.000
# M   =    125.000
# muR =     31.250
# muF =     31.250
# Q1  =  62.500; Q2  =  7.812
# p   =      5.000
# include_c1_squared =   F
# loop_mass  = t+b 
# alphas(MZ) =    0.11800
# alphas(M) =    0.11264
# alphas(muR) =    0.14091
# Rjet =      0.400
# order = NNLL
# pdf name and set = PDF4LHC15_nnlo_mc.LHgrid,    0
# matching scheme = b
# total cross sections [nb] at LO, NLOdiff, NNLOdiff, N3LOdiff =     0.016156    0.025248    0.006043   -0.002471
#----------------------------------------------------------------------
# the lines that follow give the jet-veto efficiencies as a function of pt
#         pt            matched eff      resummed eff     fixed-order eff
20.0 0.478405008258 0.51669642688 0.47336189
25.0 0.565696620752 0.589366568411 0.557907042
30.0 0.633740191622 0.639874452781 0.625013535
35.0 0.687701803854 0.674515891734 0.67917321
40.0 0.732210890422 0.697801539308 0.724625035
45.0 0.769767302623 0.712983248131 0.763371502
50.0 0.800717813418 0.722502266408 0.795495231
55.0 0.828241653713 0.728219108468 0.824104927
60.0 0.850430857581 0.731507980304 0.847184049
65.0 0.867305573848 0.733327239485 0.864770902
70.0 0.884208182632 0.734300425122 0.882253257
75.0 0.898503409046 0.734806346594 0.896997862
80.0 0.909910153655 0.735062366951 0.908743249
85.0 0.920902234328 0.735187668393 0.919995203
90.0 0.930459129333 0.735245790892 0.929749497
95.0 0.936630162387 0.735269991226 0.936069876
100.0 0.944680510715 0.735277475882 0.944236164
105.0 0.95019893361 0.735277062779 0.949843066
110.0 0.956486301101 0.735273223681 0.956199645
115.0 0.961706436553 0.735268182178 0.961473671
120.0 0.965449887818 0.735263009863 0.965259433
125.0 0.968612678891 0.735258184223 0.968455876
130.0 0.972236820094 0.735253889017 0.972106942
135.0 0.975011221563 0.735250160121 0.97490293
140.0 0.977717602272 0.735246969271 0.977626842
145.0 0.980232355384 0.735244258693 0.980155857
150.0 0.9822897155 0.73524196674 0.982224912
155.0 0.98419797283 0.735240029469 0.984142813
160.0 0.986440187954 0.735238392765 0.986393034
165.0 0.987801415964 0.735237008177 0.987760899
170.0 0.988835051744 0.735235833846 0.988800097
175.0 0.990462727176 0.73523483554 0.990432465
180.0 0.99126891068 0.735233985743 0.991242596
185.0 0.992476651999 0.735233258393 0.992453704
190.0 0.993289640016 0.735232635694 0.993269549
195.0 0.994302002267 0.73523209986 0.994284359
200.0 0.994857974007 0.735231638333 0.994842428
205.0 0.995446111678 0.735231238551 0.995432372
210.0 0.995968311326 0.735230892146 0.995956133
215.0 0.996721218859 0.735230590741 0.996710401
220.0 0.997097567484 0.73523032701 0.997087928
225.0 0.997676123668 0.735230097814 0.997667515
230.0 0.998000647573 0.735229895832 0.997992941
235.0 0.998149495502 0.73522971792 0.998142577
240.0 0.998593961524 0.735229560834 0.99858774
245.0 0.99891622222 0.735229422794 0.998910616
