# ./jetvheto -in n3lo-fixed-order/H125-LHC13-R04-mb-0-mt-1725-xmur025-xmuf050-log.fxd -xQ 0.5 -out benchmarks-n3lo-smallR/H125-LHC13-R04-mb-0-mt-1725-xmur025-xmuf050-xQ050-NNLO+NNLLb.R0-2.0.res -scheme b -order 2 -ptmax 500.01 -small-r -fixed_order 2 -loop-mass t -R0 2.0
# process = H    
# collider = pp   
# rts =  13000.000
# M   =    125.000
# muR =     31.250
# muF =     62.500
# Q   =     62.500
# p   =      5.000
# include_c1_squared =   F
# loop_mass  = t   
# alphas(MZ) =    0.11800
# alphas(M) =    0.11264
# alphas(muR) =    0.14091
# Rjet =      0.400
# order = NNLL
# pdf name and set = PDF4LHC15_nnlo_mc.LHgrid,    0
# matching scheme = b
# total cross sections [nb] at LO, NLOdiff, NNLOdiff, N3LOdiff =     0.019855    0.024744    0.005009   -0.002663
#----------------------------------------------------------------------
# the lines that follow give the jet-veto efficiencies as a function of pt
#         pt            matched eff      resummed eff     fixed-order eff
   2.00000000E+001   4.88165630E-001   5.23318352E-001   3.69272721E-001
   2.50000000E+001   5.62394136E-001   5.83738768E-001   4.69726360E-001
   3.00000000E+001   6.21703064E-001   6.25248141E-001   5.49511805E-001
   3.50000000E+001   6.70005007E-001   6.53331078E-001   6.13864488E-001
   4.00000000E+001   7.09940603E-001   6.71839797E-001   6.66517199E-001
   4.50000000E+001   7.43522780E-001   6.83564454E-001   7.10176284E-001
   5.00000000E+001   7.72496141E-001   6.90612012E-001   7.47057362E-001
   5.50000000E+001   7.97213700E-001   6.94583521E-001   7.77941942E-001
   6.00000000E+001   8.18932523E-001   6.96653791E-001   8.04372457E-001
   6.50000000E+001   8.38132705E-001   6.97627065E-001   8.27134891E-001
   7.00000000E+001   8.55180472E-001   6.98013208E-001   8.46853484E-001
   7.50000000E+001   8.70148060E-001   6.98109922E-001   8.63811915E-001
   8.00000000E+001   8.83542931E-001   6.98078106E-001   8.78688651E-001
   8.50000000E+001   8.95505952E-001   6.97998588E-001   8.91757209E-001
   9.00000000E+001   9.06171807E-001   6.97909200E-001   9.03252169E-001
   9.50000000E+001   9.15552846E-001   6.97825815E-001   9.13259014E-001
   1.00000000E+002   9.24047839E-001   6.97753824E-001   9.22229539E-001
   1.05000000E+002   9.31490277E-001   6.97693969E-001   9.30036845E-001
   1.10000000E+002   9.38185385E-001   6.97645141E-001   9.37014025E-001
   1.15000000E+002   9.44189887E-001   6.97605665E-001   9.43238345E-001
   1.20000000E+002   9.49596454E-001   6.97573855E-001   9.48817676E-001
   1.25000000E+002   9.54506968E-001   6.97548220E-001   9.53865028E-001
   1.30000000E+002   9.58822524E-001   6.97527514E-001   9.58289911E-001
   1.35000000E+002   9.62735869E-001   6.97510732E-001   9.62291205E-001
   1.40000000E+002   9.66288451E-001   6.97497074E-001   9.65914981E-001
   1.45000000E+002   9.69492968E-001   6.97485905E-001   9.69177523E-001
   1.50000000E+002   9.72431176E-001   6.97476728E-001   9.72163335E-001
   1.55000000E+002   9.75059834E-001   6.97469150E-001   9.74831295E-001
   1.60000000E+002   9.77441156E-001   6.97462862E-001   9.77245237E-001
   1.65000000E+002   9.79577785E-001   6.97457620E-001   9.79409086E-001
   1.70000000E+002   9.81544890E-001   6.97453228E-001   9.81399018E-001
   1.75000000E+002   9.83333263E-001   6.97449532E-001   9.83206634E-001
   1.80000000E+002   9.84921173E-001   6.97446408E-001   9.84810833E-001
   1.85000000E+002   9.86389784E-001   6.97443756E-001   9.86293290E-001
   1.90000000E+002   9.87731956E-001   6.97441496E-001   9.87647285E-001
   1.95000000E+002   9.88943046E-001   6.97439562E-001   9.88868507E-001
   2.00000000E+002   9.90045897E-001   6.97437902E-001   9.89980075E-001
   2.05000000E+002   9.91058543E-001   6.97436470E-001   9.91000249E-001
   2.10000000E+002   9.91951020E-001   6.97435232E-001   9.91899248E-001
   2.15000000E+002   9.92801523E-001   6.97434157E-001   9.92755418E-001
   2.20000000E+002   9.93575353E-001   6.97433222E-001   9.93534190E-001
   2.25000000E+002   9.94243136E-001   6.97432405E-001   9.94206295E-001
   2.30000000E+002   9.94922068E-001   6.97431689E-001   9.94889017E-001
   2.35000000E+002   9.95487764E-001   6.97431061E-001   9.95458046E-001
   2.40000000E+002   9.96022032E-001   6.97430508E-001   9.95995254E-001
   2.45000000E+002   9.96509820E-001   6.97430019E-001   9.96485640E-001
