# ./jetvheto -in n3lo-fixed-order/H125-LHC13-R04-mb-475-mt-1725-xmur025-xmuf025-log.fxd -xQ 0.0625 -out benchmarks-n3lo-smallR/H125-LHC13-R04-mb-475-mt-1725-xmur025-xmuf025-xQ0625-N3LO+NNLLa.R0-1.0.res -scheme a -order 2 -ptmax 500.01 -fixed_order 3 -small-r -loop-mass t+b -R0 1.0
# process = H    
# collider = pp   
# rts =  13000.000
# M   =    125.000
# muR =     31.250
# muF =     31.250
# Q   =      7.812
# p   =      5.000
# include_c1_squared =   F
# loop_mass  = t+b 
# alphas(MZ) =    0.11800
# alphas(M) =    0.11264
# alphas(muR) =    0.14091
# Rjet =      0.400
# order = NNLL
# pdf name and set = PDF4LHC15_nnlo_mc.LHgrid,    0
# matching scheme = a
# total cross sections [nb] at LO, NLOdiff, NNLOdiff, N3LOdiff =     0.016156    0.025248    0.006043   -0.002471
#----------------------------------------------------------------------
# the lines that follow give the jet-veto efficiencies as a function of pt
#         pt            matched eff      resummed eff     fixed-order eff
   2.00000000E+001   4.44378764E-001   4.79763168E-002   4.44433789E-001
   2.50000000E+001   5.33605912E-001   4.81379719E-002   5.33622985E-001
   3.00000000E+001   6.04409229E-001   4.81853386E-002   6.04415621E-001
   3.50000000E+001   6.61547641E-001   4.82024666E-002   6.61550274E-001
   4.00000000E+001   7.09497479E-001   4.82096544E-002   7.09498756E-001
   4.50000000E+001   7.50372850E-001   4.82130239E-002   7.50373558E-001
   5.00000000E+001   7.84261435E-001   4.82147446E-002   7.84261834E-001
   5.50000000E+001   8.14442792E-001   4.82156852E-002   8.14443054E-001
   6.00000000E+001   8.38789747E-001   4.82162287E-002   8.38789906E-001
   6.50000000E+001   8.57342718E-001   4.82165576E-002   8.57342801E-001
   7.00000000E+001   8.75785403E-001   4.82167645E-002   8.75785457E-001
   7.50000000E+001   8.91339946E-001   4.82168991E-002   8.91339980E-001
   8.00000000E+001   9.03730518E-001   4.82169893E-002   9.03730538E-001
   8.50000000E+001   9.15600547E-001   4.82170511E-002   9.15600559E-001
   9.00000000E+001   9.25890646E-001   4.82170946E-002   9.25890654E-001
   9.50000000E+001   9.32558208E-001   4.82171257E-002   9.32558210E-001
   1.00000000E+002   9.41173068E-001   4.82171484E-002   9.41173070E-001
   1.05000000E+002   9.47087958E-001   4.82171651E-002   9.47087958E-001
   1.10000000E+002   9.53793702E-001   4.82171778E-002   9.53793702E-001
   1.15000000E+002   9.59357430E-001   4.82171874E-002   9.59357429E-001
   1.20000000E+002   9.63351143E-001   4.82171947E-002   9.63351142E-001
   1.25000000E+002   9.66723167E-001   4.82172005E-002   9.66723166E-001
   1.30000000E+002   9.70574785E-001   4.82172050E-002   9.70574784E-001
   1.35000000E+002   9.73524355E-001   4.82172086E-002   9.73524354E-001
   1.40000000E+002   9.76397891E-001   4.82172115E-002   9.76397890E-001
   1.45000000E+002   9.79065824E-001   4.82172138E-002   9.79065823E-001
   1.50000000E+002   9.81248531E-001   4.82172157E-002   9.81248530E-001
   1.55000000E+002   9.83271783E-001   4.82172172E-002   9.83271782E-001
   1.60000000E+002   9.85645608E-001   4.82172185E-002   9.85645607E-001
   1.65000000E+002   9.87088609E-001   4.82172196E-002   9.87088609E-001
   1.70000000E+002   9.88184890E-001   4.82172204E-002   9.88184889E-001
   1.75000000E+002   9.89906923E-001   4.82172212E-002   9.89906922E-001
   1.80000000E+002   9.90761555E-001   4.82172218E-002   9.90761554E-001
   1.85000000E+002   9.92039189E-001   4.82172223E-002   9.92039188E-001
   1.90000000E+002   9.92899847E-001   4.82172228E-002   9.92899847E-001
   1.95000000E+002   9.93970400E-001   4.82172232E-002   9.93970400E-001
   2.00000000E+002   9.94559124E-001   4.82172235E-002   9.94559124E-001
   2.05000000E+002   9.95181474E-001   4.82172238E-002   9.95181474E-001
   2.10000000E+002   9.95734005E-001   4.82172240E-002   9.95734005E-001
   2.15000000E+002   9.96529704E-001   4.82172242E-002   9.96529704E-001
   2.20000000E+002   9.96927969E-001   4.82172244E-002   9.96927968E-001
   2.25000000E+002   9.97539392E-001   4.82172246E-002   9.97539392E-001
   2.30000000E+002   9.97882694E-001   4.82172247E-002   9.97882693E-001
   2.35000000E+002   9.98040550E-001   4.82172248E-002   9.98040550E-001
   2.40000000E+002   9.98510165E-001   4.82172249E-002   9.98510165E-001
   2.45000000E+002   9.98850776E-001   4.82172250E-002   9.98850776E-001
