# ./jetvheto -in n3lo-fixed-order/H125-LHC13-R04-mb-0-mt-1725-xmur200-xmuf100-log.fxd -xQ 0.5 -out benchmarks-n3lo-smallR/H125-LHC13-R04-mb-0-mt-1725-xmur200-xmuf100-xQ050-N3LO+NNLLb.R0-1.0.res -scheme b -order 2 -ptmax 500.01 -small-r -fixed_order 3 -loop-mass t -R0 1.0
# process = H    
# collider = pp   
# rts =  13000.000
# M   =    125.000
# muR =    250.000
# muF =    125.000
# Q   =     62.500
# p   =      5.000
# include_c1_squared =   F
# loop_mass  = t   
# alphas(MZ) =    0.11800
# alphas(M) =    0.11264
# alphas(muR) =    0.10244
# Rjet =      0.400
# order = NNLL
# pdf name and set = PDF4LHC15_nnlo_mc.LHgrid,    0
# matching scheme = b
# total cross sections [nb] at LO, NLOdiff, NNLOdiff, N3LOdiff =     0.011501    0.015066    0.010526    0.005600
#----------------------------------------------------------------------
# the lines that follow give the jet-veto efficiencies as a function of pt
#         pt            matched eff      resummed eff     fixed-order eff
   2.00000000E+001   4.42385740E-001   5.35086068E-001   4.13869553E-001
   2.50000000E+001   5.27618567E-001   6.21859302E-001   5.08802619E-001
   3.00000000E+001   5.98636105E-001   6.83930060E-001   5.85793323E-001
   3.50000000E+001   6.55241783E-001   7.27800808E-001   6.45743736E-001
   4.00000000E+001   7.01508814E-001   7.58264758E-001   6.94202670E-001
   4.50000000E+001   7.39362325E-001   7.78921031E-001   7.33629119E-001
   5.00000000E+001   7.71378429E-001   7.92537834E-001   7.66872624E-001
   5.50000000E+001   7.98652168E-001   8.01259964E-001   7.95126194E-001
   6.00000000E+001   8.21770459E-001   8.06715257E-001   8.19023976E-001
   6.50000000E+001   8.42205901E-001   8.10078613E-001   8.40080780E-001
   7.00000000E+001   8.59559571E-001   8.12146457E-001   8.57918516E-001
   7.50000000E+001   8.74287381E-001   8.13428624E-001   8.73019019E-001
   8.00000000E+001   8.87250209E-001   8.14237600E-001   8.86267566E-001
   8.50000000E+001   8.98864235E-001   8.14759877E-001   8.98099833E-001
   9.00000000E+001   9.08898092E-001   8.15105847E-001   9.08299567E-001
   9.50000000E+001   9.17990781E-001   8.15341085E-001   9.17519023E-001
   1.00000000E+002   9.25770978E-001   8.15505078E-001   9.25396247E-001
   1.05000000E+002   9.32745552E-001   8.15622071E-001   9.32445635E-001
   1.10000000E+002   9.38986448E-001   8.15707294E-001   9.38744628E-001
   1.15000000E+002   9.44619542E-001   8.15770540E-001   9.44423095E-001
   1.20000000E+002   9.49560816E-001   8.15818262E-001   9.49400094E-001
   1.25000000E+002   9.53906895E-001   8.15854805E-001   9.53774485E-001
   1.30000000E+002   9.58123807E-001   8.15883158E-001   9.58014030E-001
   1.35000000E+002   9.61841862E-001   8.15905416E-001   9.61750279E-001
   1.40000000E+002   9.65057410E-001   8.15923077E-001   9.64980558E-001
   1.45000000E+002   9.68087786E-001   8.15937223E-001   9.68022931E-001
   1.50000000E+002   9.70702765E-001   8.15948655E-001   9.70647752E-001
   1.55000000E+002   9.73386521E-001   8.15957966E-001   9.73339626E-001
   1.60000000E+002   9.75404016E-001   8.15965605E-001   9.75363845E-001
   1.65000000E+002   9.77441545E-001   8.15971916E-001   9.77406984E-001
   1.70000000E+002   9.79253582E-001   8.15977162E-001   9.79223721E-001
   1.75000000E+002   9.80968968E-001   8.15981548E-001   9.80943066E-001
   1.80000000E+002   9.82549031E-001   8.15985235E-001   9.82526477E-001
   1.85000000E+002   9.83973852E-001   8.15988351E-001   9.83954143E-001
   1.90000000E+002   9.85080016E-001   8.15990996E-001   9.85062731E-001
   1.95000000E+002   9.86340609E-001   8.15993251E-001   9.86325403E-001
   2.00000000E+002   9.87434452E-001   8.15995183E-001   9.87421032E-001
   2.05000000E+002   9.88402591E-001   8.15996844E-001   9.88390712E-001
   2.10000000E+002   9.89272292E-001   8.15998277E-001   9.89261746E-001
   2.15000000E+002   9.90176434E-001   8.15999519E-001   9.90167048E-001
   2.20000000E+002   9.90891764E-001   8.16000598E-001   9.90883388E-001
   2.25000000E+002   9.91608731E-001   8.16001540E-001   9.91601237E-001
   2.30000000E+002   9.92275693E-001   8.16002363E-001   9.92268973E-001
   2.35000000E+002   9.92895332E-001   8.16003085E-001   9.92889292E-001
   2.40000000E+002   9.93362782E-001   8.16003721E-001   9.93357342E-001
   2.45000000E+002   9.93912796E-001   8.16004281E-001   9.93907885E-001
