# ./jetvheto -in n3lo-fixed-order/H125-LHC13-R04-mb-475-mt-1725-xmur100-xmuf100-log.fxd -xQ 0.25 -out benchmarks-n3lo-smallR/H125-LHC13-R04-mb-475-mt-1725-xmur100-xmuf100-xQ025-NNLO+NNLLb.R0-2.0.res -scheme b -order 2 -ptmax 500.01 -fixed_order 2 -small-r -loop-mass t+b -R0 2.0
# process = H    
# collider = pp   
# rts =  13000.000
# M   =    125.000
# muR =    125.000
# muF =    125.000
# Q   =     31.250
# p   =      5.000
# include_c1_squared =   F
# loop_mass  = t+b 
# alphas(MZ) =    0.11800
# alphas(M) =    0.11264
# alphas(muR) =    0.11264
# Rjet =      0.400
# order = NNLL
# pdf name and set = PDF4LHC15_nnlo_mc.LHgrid,    0
# matching scheme = b
# total cross sections [nb] at LO, NLOdiff, NNLOdiff, N3LOdiff =     0.012292    0.016994    0.010146    0.003834
#----------------------------------------------------------------------
# the lines that follow give the jet-veto efficiencies as a function of pt
#         pt            matched eff      resummed eff     fixed-order eff
   2.00000000E+001   3.73450294E-001   5.23130956E-001   3.17550639E-001
   2.50000000E+001   4.56303548E-001   5.92261728E-001   4.27790656E-001
   3.00000000E+001   5.27188304E-001   6.32907097E-001   5.12989288E-001
   3.50000000E+001   5.88055831E-001   6.55022622E-001   5.80985186E-001
   4.00000000E+001   6.39797144E-001   6.66638687E-001   6.36189278E-001
   4.50000000E+001   6.83768502E-001   6.72777284E-001   6.81851830E-001
   5.00000000E+001   7.21211744E-001   6.76120947E-001   7.20147070E-001
   5.50000000E+001   7.53097030E-001   6.78015417E-001   7.52478916E-001
   6.00000000E+001   7.80628884E-001   6.79132997E-001   7.80255597E-001
   6.50000000E+001   8.04438010E-001   6.79817714E-001   8.04204225E-001
   7.00000000E+001   8.25066052E-001   6.80251848E-001   8.24914709E-001
   7.50000000E+001   8.43043182E-001   6.80535648E-001   8.42942328E-001
   8.00000000E+001   8.58893853E-001   6.80726282E-001   8.58824881E-001
   8.50000000E+001   8.72736421E-001   6.80857466E-001   8.72688093E-001
   9.00000000E+001   8.85089002E-001   6.80949705E-001   8.85054448E-001
   9.50000000E+001   8.95956162E-001   6.81015824E-001   8.95930965E-001
   1.00000000E+002   9.05623179E-001   6.81064049E-001   9.05604482E-001
   1.05000000E+002   9.14286816E-001   6.81099778E-001   9.14272722E-001
   1.10000000E+002   9.21927791E-001   6.81126627E-001   9.21917006E-001
   1.15000000E+002   9.28856292E-001   6.81147066E-001   9.28847935E-001
   1.20000000E+002   9.34985941E-001   6.81162811E-001   9.34979383E-001
   1.25000000E+002   9.40596484E-001   6.81175072E-001   9.40591281E-001
   1.30000000E+002   9.45635369E-001   6.81184716E-001   9.45631198E-001
   1.35000000E+002   9.50213891E-001   6.81192372E-001   9.50210516E-001
   1.40000000E+002   9.54315833E-001   6.81198501E-001   9.54313076E-001
   1.45000000E+002   9.58109878E-001   6.81203448E-001   9.58107610E-001
   1.50000000E+002   9.61492224E-001   6.81207469E-001   9.61490343E-001
   1.55000000E+002   9.64619395E-001   6.81210762E-001   9.64617823E-001
   1.60000000E+002   9.67447581E-001   6.81213475E-001   9.67446259E-001
   1.65000000E+002   9.70030714E-001   6.81215723E-001   9.70029596E-001
   1.70000000E+002   9.72400030E-001   6.81217598E-001   9.72399079E-001
   1.75000000E+002   9.74539224E-001   6.81219170E-001   9.74538410E-001
   1.80000000E+002   9.76508169E-001   6.81220493E-001   9.76507469E-001
   1.85000000E+002   9.78305928E-001   6.81221614E-001   9.78305324E-001
   1.90000000E+002   9.79960564E-001   6.81222566E-001   9.79960040E-001
   1.95000000E+002   9.81504538E-001   6.81223380E-001   9.81504081E-001
   2.00000000E+002   9.82901695E-001   6.81224077E-001   9.82901295E-001
   2.05000000E+002   9.84199795E-001   6.81224677E-001   9.84199444E-001
   2.10000000E+002   9.85384003E-001   6.81225196E-001   9.85383694E-001
   2.15000000E+002   9.86451028E-001   6.81225645E-001   9.86450755E-001
   2.20000000E+002   9.87457913E-001   6.81226036E-001   9.87457670E-001
   2.25000000E+002   9.88378656E-001   6.81226377E-001   9.88378441E-001
   2.30000000E+002   9.89227621E-001   6.81226676E-001   9.89227429E-001
   2.35000000E+002   9.90021801E-001   6.81226938E-001   9.90021629E-001
   2.40000000E+002   9.90734916E-001   6.81227168E-001   9.90734762E-001
   2.45000000E+002   9.91411174E-001   6.81227372E-001   9.91411035E-001
