# ./jetvheto -in n3lo-fixed-order/H125-LHC13-R04-mb-0-mt-1725-xmur050-xmuf100-log.fxd -xQ 0.5 -out benchmarks-n3lo-smallR/H125-LHC13-R04-mb-0-mt-1725-xmur050-xmuf100-xQ050-N3LO+NNLLa.R0-1.5.res -scheme a -order 2 -ptmax 500.01 -small-r -fixed_order 3 -loop-mass t -R0 1.5
# process = H    
# collider = pp   
# rts =  13000.000
# M   =    125.000
# muR =     62.500
# muF =    125.000
# Q   =     62.500
# p   =      5.000
# include_c1_squared =   F
# loop_mass  = t   
# alphas(MZ) =    0.11800
# alphas(M) =    0.11264
# alphas(muR) =    0.12516
# Rjet =      0.400
# order = NNLL
# pdf name and set = PDF4LHC15_nnlo_mc.LHgrid,    0
# matching scheme = a
# total cross sections [nb] at LO, NLOdiff, NNLOdiff, N3LOdiff =     0.016868    0.020591    0.008553    0.000949
#----------------------------------------------------------------------
# the lines that follow give the jet-veto efficiencies as a function of pt
#         pt            matched eff      resummed eff     fixed-order eff
   2.00000000E+001   4.76147915E-001   5.21155567E-001   4.55384304E-001
   2.50000000E+001   5.58112352E-001   5.95618801E-001   5.40568007E-001
   3.00000000E+001   6.28904782E-001   6.47525457E-001   6.15061825E-001
   3.50000000E+001   6.83281444E-001   6.83250510E-001   6.71924624E-001
   4.00000000E+001   7.27048946E-001   7.07321857E-001   7.17776886E-001
   4.50000000E+001   7.62203247E-001   7.23059593E-001   7.54726893E-001
   5.00000000E+001   7.92181586E-001   7.32968456E-001   7.86256196E-001
   5.50000000E+001   8.17992290E-001   7.38950687E-001   8.13360155E-001
   6.00000000E+001   8.39574524E-001   7.42416077E-001   8.35982829E-001
   6.50000000E+001   8.59307450E-001   7.44352063E-001   8.56539019E-001
   7.00000000E+001   8.75765801E-001   7.45402743E-001   8.73636697E-001
   7.50000000E+001   8.89119713E-001   7.45960698E-001   8.87481736E-001
   8.00000000E+001   9.00921797E-001   7.46252075E-001   8.99656735E-001
   8.50000000E+001   9.11837438E-001   7.46401757E-001   9.10854774E-001
   9.00000000E+001   9.20946634E-001   7.46476991E-001   9.20178063E-001
   9.50000000E+001   9.29508481E-001   7.46513416E-001   9.28902629E-001
   1.00000000E+002   9.36419263E-001   7.46529783E-001   9.35938367E-001
   1.05000000E+002   9.42654044E-001   7.46535927E-001   9.42269256E-001
   1.10000000E+002   9.48325801E-001   7.46536999E-001   9.48015510E-001
   1.15000000E+002   9.53404398E-001   7.46535686E-001   9.53152280E-001
   1.20000000E+002   9.57751742E-001   7.46533379E-001   9.57545500E-001
   1.25000000E+002   9.61417278E-001   7.46530781E-001   9.61247428E-001
   1.30000000E+002   9.65344600E-001   7.46528234E-001   9.65203712E-001
   1.35000000E+002   9.68714054E-001   7.46525892E-001   9.68596472E-001
   1.40000000E+002   9.71441855E-001   7.46523810E-001   9.71343224E-001
   1.45000000E+002   9.74109606E-001   7.46521994E-001   9.74026360E-001
   1.50000000E+002   9.76297488E-001   7.46520428E-001   9.76226901E-001
   1.55000000E+002   9.78890841E-001   7.46519086E-001   9.78830644E-001
   1.60000000E+002   9.80327298E-001   7.46517938E-001   9.80275773E-001
   1.65000000E+002   9.82081664E-001   7.46516959E-001   9.82037344E-001
   1.70000000E+002   9.83563851E-001   7.46516123E-001   9.83525568E-001
   1.75000000E+002   9.85081769E-001   7.46515408E-001   9.85048566E-001
   1.80000000E+002   9.86465696E-001   7.46514797E-001   9.86436787E-001
   1.85000000E+002   9.87702362E-001   7.46514272E-001   9.87677104E-001
   1.90000000E+002   9.88388200E-001   7.46513820E-001   9.88366066E-001
   1.95000000E+002   9.89533946E-001   7.46513431E-001   9.89514472E-001
   2.00000000E+002   9.90467735E-001   7.46513095E-001   9.90450552E-001
   2.05000000E+002   9.91225031E-001   7.46512804E-001   9.91209825E-001
   2.10000000E+002   9.91897866E-001   7.46512550E-001   9.91884371E-001
   2.15000000E+002   9.92749226E-001   7.46512330E-001   9.92737216E-001
   2.20000000E+002   9.93262205E-001   7.46512137E-001   9.93251490E-001
   2.25000000E+002   9.93865906E-001   7.46511968E-001   9.93856322E-001
   2.30000000E+002   9.94431357E-001   7.46511820E-001   9.94422764E-001
   2.35000000E+002   9.94949046E-001   7.46511689E-001   9.94941324E-001
   2.40000000E+002   9.95222860E-001   7.46511574E-001   9.95215907E-001
   2.45000000E+002   9.95717666E-001   7.46511472E-001   9.95711389E-001
