# ./jetvheto -in n3lo-fixed-order/H125-LHC13-R04-heft-xmur100-xmuf100-log.fxd -xQ 0.333 -out benchmarks-n3lo-smallR/H125-LHC13-R04-heft-xmur100-xmuf100-xQ033-NNLO+NNLLa.R0-1.0.res -scheme a -order 2 -ptmax 500.01 -fixed_order 2 -small-r -R0 1.0
# process = H    
# collider = pp   
# rts =  13000.000
# M   =    125.000
# muR =    125.000
# muF =    125.000
# Q   =     41.625
# p   =      5.000
# include_c1_squared =   F
# loop_mass  = none
# alphas(MZ) =    0.11800
# alphas(M) =    0.11264
# alphas(muR) =    0.11264
# Rjet =      0.400
# order = NNLL
# pdf name and set = PDF4LHC15_nnlo_mc.LHgrid,    0
# matching scheme = a
# total cross sections [nb] at LO, NLOdiff, NNLOdiff, N3LOdiff =     0.012945    0.016716    0.010146    0.003834
#----------------------------------------------------------------------
# the lines that follow give the jet-veto efficiencies as a function of pt
#         pt            matched eff      resummed eff     fixed-order eff
   2.00000000E+001   4.84278048E-001   5.20940696E-001   5.03121755E-001
   2.50000000E+001   5.71109615E-001   6.00057631E-001   5.84489186E-001
   3.00000000E+001   6.38500583E-001   6.53449400E-001   6.47024325E-001
   3.50000000E+001   6.91295969E-001   6.87973988E-001   6.96432698E-001
   4.00000000E+001   7.33473942E-001   7.09367041E-001   7.36537087E-001
   4.50000000E+001   7.67634851E-001   7.22235374E-001   7.69498888E-001
   5.00000000E+001   7.95880107E-001   7.29899103E-001   7.97057559E-001
   5.50000000E+001   8.19522764E-001   7.34498773E-001   8.20296043E-001
   6.00000000E+001   8.39652632E-001   7.37312587E-001   8.40179538E-001
   6.50000000E+001   8.56941789E-001   7.39076617E-001   8.57311575E-001
   7.00000000E+001   8.71803975E-001   7.40211696E-001   8.72069843E-001
   7.50000000E+001   8.84760943E-001   7.40960926E-001   8.84956099E-001
   8.00000000E+001   8.96091261E-001   7.41467470E-001   8.96237121E-001
   8.50000000E+001   9.05992039E-001   7.41817595E-001   9.06102675E-001
   9.00000000E+001   9.14794973E-001   7.42064541E-001   9.14880120E-001
   9.50000000E+001   9.22537797E-001   7.42241950E-001   9.22604114E-001
   1.00000000E+002   9.29420791E-001   7.42371551E-001   9.29473021E-001
   1.05000000E+002   9.35561600E-001   7.42467683E-001   9.35603161E-001
   1.10000000E+002   9.41020018E-001   7.42539988E-001   9.41053390E-001
   1.15000000E+002   9.45948923E-001   7.42595067E-001   9.45975962E-001
   1.20000000E+002   9.50358847E-001   7.42637517E-001   9.50380922E-001
   1.25000000E+002   9.54335919E-001   7.42670587E-001   9.54354081E-001
   1.30000000E+002   9.57918913E-001   7.42696606E-001   9.57933958E-001
   1.35000000E+002   9.61183333E-001   7.42717266E-001   9.61195880E-001
   1.40000000E+002   9.64099716E-001   7.42733811E-001   9.64110237E-001
   1.45000000E+002   9.66802125E-001   7.42747165E-001   9.66811003E-001
   1.50000000E+002   9.69209127E-001   7.42758024E-001   9.69216654E-001
   1.55000000E+002   9.71418784E-001   7.42766914E-001   9.71425199E-001
   1.60000000E+002   9.73453599E-001   7.42774240E-001   9.73459094E-001
   1.65000000E+002   9.75297129E-001   7.42780313E-001   9.75301855E-001
   1.70000000E+002   9.77006513E-001   7.42785376E-001   9.77010596E-001
   1.75000000E+002   9.78550802E-001   7.42789621E-001   9.78554343E-001
   1.80000000E+002   9.79987613E-001   7.42793196E-001   9.79990696E-001
   1.85000000E+002   9.81293733E-001   7.42796222E-001   9.81296426E-001
   1.90000000E+002   9.82501565E-001   7.42798796E-001   9.82503927E-001
   1.95000000E+002   9.83636210E-001   7.42800993E-001   9.83638287E-001
   2.00000000E+002   9.84673374E-001   7.42802877E-001   9.84675207E-001
   2.05000000E+002   9.85637463E-001   7.42804499E-001   9.85639085E-001
   2.10000000E+002   9.86521580E-001   7.42805899E-001   9.86523019E-001
   2.15000000E+002   9.87329700E-001   7.42807113E-001   9.87330981E-001
   2.20000000E+002   9.88091076E-001   7.42808169E-001   9.88092219E-001
   2.25000000E+002   9.88793961E-001   7.42809091E-001   9.88794983E-001
   2.30000000E+002   9.89450145E-001   7.42809897E-001   9.89451061E-001
   2.35000000E+002   9.90074983E-001   7.42810605E-001   9.90075806E-001
   2.40000000E+002   9.90640113E-001   7.42811228E-001   9.90640855E-001
   2.45000000E+002   9.91174286E-001   7.42811777E-001   9.91174955E-001
