# ./jetvheto -in n3lo-fixed-order/H125-LHC13-R04-mb-475-mt-1725-xmur050-xmuf100-log.fxd -xQ 0.0625 -out benchmarks-n3lo-smallR/H125-LHC13-R04-mb-475-mt-1725-xmur050-xmuf100-xQ0625-NNLO+NNLLb.R0-2.0.res -scheme b -order 2 -ptmax 500.01 -fixed_order 2 -small-r -loop-mass t+b -R0 2.0
# process = H    
# collider = pp   
# rts =  13000.000
# M   =    125.000
# muR =     62.500
# muF =    125.000
# Q   =      7.812
# p   =      5.000
# include_c1_squared =   F
# loop_mass  = t+b 
# alphas(MZ) =    0.11800
# alphas(M) =    0.11264
# alphas(muR) =    0.12516
# Rjet =      0.400
# order = NNLL
# pdf name and set = PDF4LHC15_nnlo_mc.LHgrid,    0
# matching scheme = b
# total cross sections [nb] at LO, NLOdiff, NNLOdiff, N3LOdiff =     0.015023    0.020252    0.008553    0.000949
#----------------------------------------------------------------------
# the lines that follow give the jet-veto efficiencies as a function of pt
#         pt            matched eff      resummed eff     fixed-order eff
   2.00000000E+001   3.20862642E-001   1.74432538E-001   3.20313286E-001
   2.50000000E+001   4.29419079E-001   1.74796308E-001   4.29278925E-001
   3.00000000E+001   5.14426303E-001   1.74902851E-001   5.14383374E-001
   3.50000000E+001   5.82596218E-001   1.74941372E-001   5.82581444E-001
   4.00000000E+001   6.38169630E-001   1.74957537E-001   6.38164221E-001
   4.50000000E+001   6.84152079E-001   1.74965114E-001   6.84150076E-001
   5.00000000E+001   7.22714236E-001   1.74968984E-001   7.22713547E-001
   5.50000000E+001   7.55241881E-001   1.74971099E-001   7.55241710E-001
   6.00000000E+001   7.83192076E-001   1.74972321E-001   7.83192109E-001
   6.50000000E+001   8.07260717E-001   1.74973061E-001   8.07260822E-001
   7.00000000E+001   8.28030947E-001   1.74973526E-001   8.28031068E-001
   7.50000000E+001   8.46095472E-001   1.74973829E-001   8.46095587E-001
   8.00000000E+001   8.61978482E-001   1.74974031E-001   8.61978585E-001
   8.50000000E+001   8.75799115E-001   1.74974171E-001   8.75799202E-001
   9.00000000E+001   8.88124061E-001   1.74974268E-001   8.88124135E-001
   9.50000000E+001   8.98934918E-001   1.74974338E-001   8.98934980E-001
   1.00000000E+002   9.08528385E-001   1.74974389E-001   9.08528436E-001
   1.05000000E+002   9.17103286E-001   1.74974427E-001   9.17103329E-001
   1.10000000E+002   9.24651214E-001   1.74974455E-001   9.24651250E-001
   1.15000000E+002   9.31485259E-001   1.74974477E-001   9.31485289E-001
   1.20000000E+002   9.37518419E-001   1.74974494E-001   9.37518444E-001
   1.25000000E+002   9.43025488E-001   1.74974506E-001   9.43025509E-001
   1.30000000E+002   9.47960144E-001   1.74974517E-001   9.47960161E-001
   1.35000000E+002   9.52442880E-001   1.74974525E-001   9.52442895E-001
   1.40000000E+002   9.56429628E-001   1.74974531E-001   9.56429641E-001
   1.45000000E+002   9.60135164E-001   1.74974536E-001   9.60135174E-001
   1.50000000E+002   9.63408519E-001   1.74974541E-001   9.63408528E-001
   1.55000000E+002   9.66431460E-001   1.74974544E-001   9.66431468E-001
   1.60000000E+002   9.69174907E-001   1.74974547E-001   9.69174914E-001
   1.65000000E+002   9.71664291E-001   1.74974549E-001   9.71664297E-001
   1.70000000E+002   9.73952890E-001   1.74974551E-001   9.73952895E-001
   1.75000000E+002   9.76006376E-001   1.74974553E-001   9.76006381E-001
   1.80000000E+002   9.77900998E-001   1.74974554E-001   9.77901002E-001
   1.85000000E+002   9.79620643E-001   1.74974556E-001   9.79620647E-001
   1.90000000E+002   9.81205918E-001   1.74974557E-001   9.81205921E-001
   1.95000000E+002   9.82687712E-001   1.74974557E-001   9.82687714E-001
   2.00000000E+002   9.84021045E-001   1.74974558E-001   9.84021048E-001
   2.05000000E+002   9.85262583E-001   1.74974559E-001   9.85262585E-001
   2.10000000E+002   9.86389602E-001   1.74974559E-001   9.86389604E-001
   2.15000000E+002   9.87400132E-001   1.74974560E-001   9.87400133E-001
   2.20000000E+002   9.88358789E-001   1.74974560E-001   9.88358791E-001
   2.25000000E+002   9.89232235E-001   1.74974561E-001   9.89232237E-001
   2.30000000E+002   9.90037127E-001   1.74974561E-001   9.90037128E-001
   2.35000000E+002   9.90794441E-001   1.74974561E-001   9.90794442E-001
   2.40000000E+002   9.91467384E-001   1.74974561E-001   9.91467385E-001
   2.45000000E+002   9.92107783E-001   1.74974562E-001   9.92107784E-001
