# ./jetvheto -in n3lo-fixed-order/H125-LHC13-R04-mb-0-mt-1725-xmur050-xmuf025-log.fxd -xQ 0.0625 -out benchmarks-n3lo-smallR/H125-LHC13-R04-mb-0-mt-1725-xmur050-xmuf025-xQ0625-N3LO+NNLLb.R0-1.0.res -scheme b -order 2 -ptmax 500.01 -small-r -fixed_order 3 -loop-mass t -R0 1.0
# process = H    
# collider = pp   
# rts =  13000.000
# M   =    125.000
# muR =     62.500
# muF =     31.250
# Q   =      7.812
# p   =      5.000
# include_c1_squared =   F
# loop_mass  = t   
# alphas(MZ) =    0.11800
# alphas(M) =    0.11264
# alphas(muR) =    0.12516
# Rjet =      0.400
# order = NNLL
# pdf name and set = PDF4LHC15_nnlo_mc.LHgrid,    0
# matching scheme = b
# total cross sections [nb] at LO, NLOdiff, NNLOdiff, N3LOdiff =     0.014513    0.020714    0.009723    0.001827
#----------------------------------------------------------------------
# the lines that follow give the jet-veto efficiencies as a function of pt
#         pt            matched eff      resummed eff     fixed-order eff
   2.00000000E+001   4.32722514E-001   1.72498226E-001   4.32654271E-001
   2.50000000E+001   5.25449758E-001   1.72867897E-001   5.25438435E-001
   3.00000000E+001   5.98275610E-001   1.72976172E-001   5.98274849E-001
   3.50000000E+001   6.56672299E-001   1.73015319E-001   6.56673365E-001
   4.00000000E+001   7.04871472E-001   1.73031747E-001   7.04872664E-001
   4.50000000E+001   7.45218255E-001   1.73039448E-001   7.45219237E-001
   5.00000000E+001   7.78820828E-001   1.73043380E-001   7.78821557E-001
   5.50000000E+001   8.08005358E-001   1.73045530E-001   8.08005902E-001
   6.00000000E+001   8.32119538E-001   1.73046772E-001   8.32119932E-001
   6.50000000E+001   8.51541046E-001   1.73047524E-001   8.51541323E-001
   7.00000000E+001   8.69611144E-001   1.73047997E-001   8.69611350E-001
   7.50000000E+001   8.85012540E-001   1.73048304E-001   8.85012693E-001
   8.00000000E+001   8.97864419E-001   1.73048510E-001   8.97864534E-001
   8.50000000E+001   9.09586924E-001   1.73048652E-001   9.09587011E-001
   9.00000000E+001   9.19882230E-001   1.73048751E-001   9.19882297E-001
   9.50000000E+001   9.27593869E-001   1.73048822E-001   9.27593920E-001
   1.00000000E+002   9.35978820E-001   1.73048874E-001   9.35978860E-001
   1.05000000E+002   9.42457562E-001   1.73048912E-001   9.42457594E-001
   1.10000000E+002   9.48998923E-001   1.73048941E-001   9.48998949E-001
   1.15000000E+002   9.54644850E-001   1.73048963E-001   9.54644871E-001
   1.20000000E+002   9.59128574E-001   1.73048980E-001   9.59128590E-001
   1.25000000E+002   9.62985821E-001   1.73048993E-001   9.62985835E-001
   1.30000000E+002   9.66943483E-001   1.73049003E-001   9.66943495E-001
   1.35000000E+002   9.70217803E-001   1.73049011E-001   9.70217812E-001
   1.40000000E+002   9.73306686E-001   1.73049018E-001   9.73306693E-001
   1.45000000E+002   9.76137467E-001   1.73049023E-001   9.76137473E-001
   1.50000000E+002   9.78547555E-001   1.73049028E-001   9.78547560E-001
   1.55000000E+002   9.80757739E-001   1.73049031E-001   9.80757743E-001
   1.60000000E+002   9.83070987E-001   1.73049034E-001   9.83070991E-001
   1.65000000E+002   9.84784001E-001   1.73049037E-001   9.84784004E-001
   1.70000000E+002   9.86198831E-001   1.73049039E-001   9.86198834E-001
   1.75000000E+002   9.87894695E-001   1.73049040E-001   9.87894697E-001
   1.80000000E+002   9.89052812E-001   1.73049042E-001   9.89052814E-001
   1.85000000E+002   9.90373961E-001   1.73049043E-001   9.90373963E-001
   1.90000000E+002   9.91417601E-001   1.73049044E-001   9.91417603E-001
   1.95000000E+002   9.92535635E-001   1.73049045E-001   9.92535637E-001
   2.00000000E+002   9.93323506E-001   1.73049045E-001   9.93323508E-001
   2.05000000E+002   9.94102488E-001   1.73049046E-001   9.94102489E-001
   2.10000000E+002   9.94812732E-001   1.73049047E-001   9.94812733E-001
   2.15000000E+002   9.95593467E-001   1.73049047E-001   9.95593468E-001
   2.20000000E+002   9.96137633E-001   1.73049048E-001   9.96137634E-001
   2.25000000E+002   9.96785239E-001   1.73049048E-001   9.96785239E-001
   2.30000000E+002   9.97242338E-001   1.73049048E-001   9.97242338E-001
   2.35000000E+002   9.97565601E-001   1.73049049E-001   9.97565601E-001
   2.40000000E+002   9.98041587E-001   1.73049049E-001   9.98041587E-001
   2.45000000E+002   9.98442571E-001   1.73049049E-001   9.98442572E-001
