# ./jetvheto -in n3lo-fixed-order/H125-LHC13-R04-mb-475-mt-1725-xmur100-xmuf100-log.fxd -xQ 0.25 -out benchmarks-n3lo-smallR/H125-LHC13-R04-mb-475-mt-1725-xmur100-xmuf100-xQ025-N3LO+NNLLb.R0-1.5.res -scheme b -order 2 -ptmax 500.01 -fixed_order 3 -small-r -loop-mass t+b -R0 1.5
# process = H    
# collider = pp   
# rts =  13000.000
# M   =    125.000
# muR =    125.000
# muF =    125.000
# Q   =     31.250
# p   =      5.000
# include_c1_squared =   F
# loop_mass  = t+b 
# alphas(MZ) =    0.11800
# alphas(M) =    0.11264
# alphas(muR) =    0.11264
# Rjet =      0.400
# order = NNLL
# pdf name and set = PDF4LHC15_nnlo_mc.LHgrid,    0
# matching scheme = b
# total cross sections [nb] at LO, NLOdiff, NNLOdiff, N3LOdiff =     0.012292    0.016994    0.010146    0.003834
#----------------------------------------------------------------------
# the lines that follow give the jet-veto efficiencies as a function of pt
#         pt            matched eff      resummed eff     fixed-order eff
   2.00000000E+001   4.15768652E-001   5.22165316E-001   3.97974970E-001
   2.50000000E+001   5.00824740E-001   5.91717787E-001   4.91794485E-001
   3.00000000E+001   5.75019507E-001   6.32612845E-001   5.70830727E-001
   3.50000000E+001   6.34401341E-001   6.54863633E-001   6.32372721E-001
   4.00000000E+001   6.83214672E-001   6.66550383E-001   6.82195687E-001
   4.50000000E+001   7.23443508E-001   6.72726204E-001   7.22903550E-001
   5.00000000E+001   7.57786045E-001   6.76090100E-001   7.57489684E-001
   5.50000000E+001   7.87231148E-001   6.77996019E-001   7.87062825E-001
   6.00000000E+001   8.12164919E-001   6.79120348E-001   8.12064423E-001
   6.50000000E+001   8.34450615E-001   6.79809198E-001   8.34389891E-001
   7.00000000E+001   8.53304586E-001   6.80245952E-001   8.53266196E-001
   7.50000000E+001   8.68941411E-001   6.80531464E-001   8.68915734E-001
   8.00000000E+001   8.82742429E-001   6.80723248E-001   8.82724838E-001
   8.50000000E+001   8.95185874E-001   6.80855224E-001   8.95173737E-001
   9.00000000E+001   9.05859825E-001   6.80948019E-001   9.05851124E-001
   9.50000000E+001   9.15610578E-001   6.81014537E-001   9.15604325E-001
   1.00000000E+002   9.23760005E-001   6.81063053E-001   9.23755321E-001
   1.05000000E+002   9.31098872E-001   6.81098997E-001   9.31095317E-001
   1.10000000E+002   9.37678773E-001   6.81126008E-001   9.37676052E-001
   1.15000000E+002   9.43591279E-001   6.81146571E-001   9.43589165E-001
   1.20000000E+002   9.48693208E-001   6.81162411E-001   9.48691534E-001
   1.25000000E+002   9.53166684E-001   6.81174746E-001   9.53165332E-001
   1.30000000E+002   9.57611860E-001   6.81184447E-001   9.57610782E-001
   1.35000000E+002   9.61528531E-001   6.81192149E-001   9.61527659E-001
   1.40000000E+002   9.64811889E-001   6.81198316E-001   9.64811168E-001
   1.45000000E+002   9.67961066E-001   6.81203292E-001   9.67960469E-001
   1.50000000E+002   9.70629945E-001   6.81207338E-001   9.70629444E-001
   1.55000000E+002   9.73497035E-001   6.81210650E-001   9.73496621E-001
   1.60000000E+002   9.75439724E-001   6.81213380E-001   9.75439366E-001
   1.65000000E+002   9.77533221E-001   6.81215642E-001   9.77532916E-001
   1.70000000E+002   9.79362367E-001   6.81217528E-001   9.79362104E-001
   1.75000000E+002   9.81142760E-001   6.81219109E-001   9.81142536E-001
   1.80000000E+002   9.82765795E-001   6.81220440E-001   9.82765601E-001
   1.85000000E+002   9.84232625E-001   6.81221568E-001   9.84232456E-001
   1.90000000E+002   9.85260093E-001   6.81222526E-001   9.85259944E-001
   1.95000000E+002   9.86580666E-001   6.81223344E-001   9.86580536E-001
   2.00000000E+002   9.87701645E-001   6.81224046E-001   9.87701531E-001
   2.05000000E+002   9.88662940E-001   6.81224650E-001   9.88662839E-001
   2.10000000E+002   9.89531334E-001   6.81225171E-001   9.89531244E-001
   2.15000000E+002   9.90479810E-001   6.81225624E-001   9.90479731E-001
   2.20000000E+002   9.91173561E-001   6.81226017E-001   9.91173490E-001
   2.25000000E+002   9.91902101E-001   6.81226360E-001   9.91902037E-001
   2.30000000E+002   9.92578365E-001   6.81226660E-001   9.92578309E-001
   2.35000000E+002   9.93202538E-001   6.81226924E-001   9.93202487E-001
   2.40000000E+002   9.93628186E-001   6.81227156E-001   9.93628140E-001
   2.45000000E+002   9.94199693E-001   6.81227360E-001   9.94199651E-001
