# ./jetvheto -in n3lo-fixed-order/H125-LHC13-R04-mb-475-mt-1725-xmur025-xmuf050-log.fxd -xQ 0.5 -out benchmarks-n3lo-smallR/H125-LHC13-R04-mb-475-mt-1725-xmur025-xmuf050-xQ050-N3LO+NNLLb.R0-1.0.res -scheme b -order 2 -ptmax 500.01 -fixed_order 3 -small-r -loop-mass t+b -R0 1.0
# process = H    
# collider = pp   
# rts =  13000.000
# M   =    125.000
# muR =     31.250
# muF =     62.500
# Q   =     62.500
# p   =      5.000
# include_c1_squared =   F
# loop_mass  = t+b 
# alphas(MZ) =    0.11800
# alphas(M) =    0.11264
# alphas(muR) =    0.14091
# Rjet =      0.400
# order = NNLL
# pdf name and set = PDF4LHC15_nnlo_mc.LHgrid,    0
# matching scheme = b
# total cross sections [nb] at LO, NLOdiff, NNLOdiff, N3LOdiff =     0.017683    0.024805    0.005009   -0.002663
#----------------------------------------------------------------------
# the lines that follow give the jet-veto efficiencies as a function of pt
#         pt            matched eff      resummed eff     fixed-order eff
   2.00000000E+001   4.79649148E-001   4.71791561E-001   4.77630795E-001
   2.50000000E+001   5.62448185E-001   5.35384034E-001   5.55490405E-001
   3.00000000E+001   6.34654863E-001   5.79159616E-001   6.27139586E-001
   3.50000000E+001   6.91215695E-001   6.08899221E-001   6.83914005E-001
   4.00000000E+001   7.33163124E-001   6.28649542E-001   7.26455264E-001
   4.50000000E+001   7.71238619E-001   6.41322794E-001   7.65589394E-001
   5.00000000E+001   8.00600501E-001   6.49101409E-001   7.95971836E-001
   5.50000000E+001   8.26669917E-001   6.53635148E-001   8.23001148E-001
   6.00000000E+001   8.47478635E-001   6.56133625E-001   8.44619420E-001
   6.50000000E+001   8.67825682E-001   6.57429029E-001   8.65621325E-001
   7.00000000E+001   8.82258025E-001   6.58054789E-001   8.80565053E-001
   7.50000000E+001   8.95602350E-001   6.58328376E-001   8.94304462E-001
   8.00000000E+001   9.07981013E-001   6.58426698E-001   9.06981466E-001
   8.50000000E+001   9.19088460E-001   6.58443020E-001   9.18314335E-001
   9.00000000E+001   9.28870719E-001   6.58424505E-001   9.28266666E-001
   9.50000000E+001   9.36183604E-001   6.58393869E-001   9.35709992E-001
   1.00000000E+002   9.43511341E-001   6.58361450E-001   9.43136433E-001
   1.05000000E+002   9.48949412E-001   6.58331544E-001   9.48650978E-001
   1.10000000E+002   9.54040233E-001   6.58305589E-001   9.53800536E-001
   1.15000000E+002   9.59113573E-001   6.58283744E-001   9.58919523E-001
   1.20000000E+002   9.63668873E-001   6.58265647E-001   9.63510598E-001
   1.25000000E+002   9.67190675E-001   6.58250770E-001   9.67060783E-001
   1.30000000E+002   9.70193365E-001   6.58238577E-001   9.70086131E-001
   1.35000000E+002   9.73446708E-001   6.58228586E-001   9.73357507E-001
   1.40000000E+002   9.76412184E-001   6.58220384E-001   9.76337556E-001
   1.45000000E+002   9.78880395E-001   6.58213632E-001   9.78817643E-001
   1.50000000E+002   9.80506365E-001   6.58208055E-001   9.80453348E-001
   1.55000000E+002   9.82856287E-001   6.58203431E-001   9.82811216E-001
   1.60000000E+002   9.84935019E-001   6.58199580E-001   9.84896523E-001
   1.65000000E+002   9.85737435E-001   6.58196361E-001   9.85704461E-001
   1.70000000E+002   9.87312107E-001   6.58193658E-001   9.87283697E-001
   1.75000000E+002   9.88816093E-001   6.58191379E-001   9.88791511E-001
   1.80000000E+002   9.89795916E-001   6.58189449E-001   9.89774582E-001
   1.85000000E+002   9.90693316E-001   6.58187809E-001   9.90674731E-001
   1.90000000E+002   9.91722347E-001   6.58186410E-001   9.91706092E-001
   1.95000000E+002   9.92684246E-001   6.58185211E-001   9.92669982E-001
   2.00000000E+002   9.93505167E-001   6.58184181E-001   9.93492612E-001
   2.05000000E+002   9.94056892E-001   6.58183293E-001   9.94045808E-001
   2.10000000E+002   9.94689585E-001   6.58182524E-001   9.94679771E-001
   2.15000000E+002   9.95073129E-001   6.58181856E-001   9.95064416E-001
   2.20000000E+002   9.95936150E-001   6.58181274E-001   9.95928387E-001
   2.25000000E+002   9.96177172E-001   6.58180766E-001   9.96170247E-001
   2.30000000E+002   9.96588581E-001   6.58180321E-001   9.96582383E-001
   2.35000000E+002   9.96834335E-001   6.58179930E-001   9.96828776E-001
   2.40000000E+002   9.97158094E-001   6.58179586E-001   9.97153096E-001
   2.45000000E+002   9.97631618E-001   6.58179282E-001   9.97627113E-001
