# ./jetvheto -in n3lo-fixed-order/H125-LHC13-R04-heft-xmur100-xmuf200-log.fxd -xQ 0.50 -out benchmarks-n3lo-smallR/H125-LHC13-R04-heft-xmur100-xmuf200-xQ050-N3LO+NNLLb.R0-2.0.res -scheme b -order 2 -ptmax 500.01 -fixed_order 3 -small-r -R0 2.0
# process = H    
# collider = pp   
# rts =  13000.000
# M   =    125.000
# muR =    125.000
# muF =    250.000
# Q   =     62.500
# p   =      5.000
# include_c1_squared =   F
# loop_mass  = none
# alphas(MZ) =    0.11800
# alphas(M) =    0.11264
# alphas(muR) =    0.11264
# Rjet =      0.400
# order = NNLL
# pdf name and set = PDF4LHC15_nnlo_mc.LHgrid,    0
# matching scheme = b
# total cross sections [nb] at LO, NLOdiff, NNLOdiff, N3LOdiff =     0.013467    0.016878    0.009991    0.003297
#----------------------------------------------------------------------
# the lines that follow give the jet-veto efficiencies as a function of pt
#         pt            matched eff      resummed eff     fixed-order eff
   2.00000000E+001   4.45947405E-001   5.40758726E-001   4.08633307E-001
   2.50000000E+001   5.31610805E-001   6.18842841E-001   5.05612486E-001
   3.00000000E+001   5.98684272E-001   6.73406307E-001   5.79536348E-001
   3.50000000E+001   6.54539597E-001   7.11053459E-001   6.40211114E-001
   4.00000000E+001   7.00479260E-001   7.36495729E-001   6.89575553E-001
   4.50000000E+001   7.37477468E-001   7.53187719E-001   7.29079420E-001
   5.00000000E+001   7.70813266E-001   7.63742261E-001   7.64379914E-001
   5.50000000E+001   7.97601781E-001   7.70151821E-001   7.92661473E-001
   6.00000000E+001   8.20624823E-001   7.73895343E-001   8.16843400E-001
   6.50000000E+001   8.40102397E-001   7.76010327E-001   8.37210998E-001
   7.00000000E+001   8.58258389E-001   7.77176203E-001   8.56043537E-001
   7.50000000E+001   8.72990765E-001   7.77808967E-001   8.71290208E-001
   8.00000000E+001   8.85835778E-001   7.78149658E-001   8.84523471E-001
   8.50000000E+001   8.97419978E-001   7.78332547E-001   8.96400813E-001
   9.00000000E+001   9.07230875E-001   7.78430628E-001   9.06433756E-001
   9.50000000E+001   9.16672943E-001   7.78483083E-001   9.16044203E-001
   1.00000000E+002   9.24473418E-001   7.78510919E-001   9.23973978E-001
   1.05000000E+002   9.31291904E-001   7.78525438E-001   9.30892000E-001
   1.10000000E+002   9.37150333E-001   7.78532729E-001   9.36827731E-001
   1.15000000E+002   9.42843445E-001   7.78536106E-001   9.42581111E-001
   1.20000000E+002   9.48055016E-001   7.78537383E-001   9.47840126E-001
   1.25000000E+002   9.52228490E-001   7.78537559E-001   9.52051387E-001
   1.30000000E+002   9.56318518E-001   7.78537183E-001   9.56171546E-001
   1.35000000E+002   9.59742207E-001   7.78536557E-001   9.59619514E-001
   1.40000000E+002   9.63340254E-001   7.78535844E-001   9.63237181E-001
   1.45000000E+002   9.66036295E-001   7.78535131E-001   9.65949287E-001
   1.50000000E+002   9.68780547E-001   7.78534459E-001   9.68706688E-001
   1.55000000E+002   9.71212196E-001   7.78533847E-001   9.71149200E-001
   1.60000000E+002   9.73301640E-001   7.78533300E-001   9.73247660E-001
   1.65000000E+002   9.75069733E-001   7.78532818E-001   9.75023283E-001
   1.70000000E+002   9.77091819E-001   7.78532397E-001   9.77051661E-001
   1.75000000E+002   9.78672549E-001   7.78532029E-001   9.78637707E-001
   1.80000000E+002   9.80497317E-001   7.78531709E-001   9.80466957E-001
   1.85000000E+002   9.81678277E-001   7.78531432E-001   9.81651744E-001
   1.90000000E+002   9.82962008E-001   7.78531190E-001   9.82938735E-001
   1.95000000E+002   9.84085289E-001   7.78530980E-001   9.84064810E-001
   2.00000000E+002   9.85413436E-001   7.78530798E-001   9.85395353E-001
   2.05000000E+002   9.86225906E-001   7.78530638E-001   9.86209901E-001
   2.10000000E+002   9.87016884E-001   7.78530499E-001   9.87002676E-001
   2.15000000E+002   9.87936850E-001   7.78530377E-001   9.87924200E-001
   2.20000000E+002   9.88793752E-001   7.78530271E-001   9.88782461E-001
   2.25000000E+002   9.89422325E-001   7.78530177E-001   9.89412223E-001
   2.30000000E+002   9.90034582E-001   7.78530094E-001   9.90025523E-001
   2.35000000E+002   9.90699783E-001   7.78530021E-001   9.90691638E-001
   2.40000000E+002   9.91285598E-001   7.78529957E-001   9.91278261E-001
   2.45000000E+002   9.91853282E-001   7.78529900E-001   9.91846658E-001
