# ./jetvheto -in n3lo-fixed-order/H125-LHC13-R04-mb-475-mt-1725-xmur200-xmuf200-log.fxd -xQ 0.5 -out benchmarks-n3lo-smallR/H125-LHC13-R04-mb-475-mt-1725-xmur200-xmuf200-xQ050-N3LO+NNLLa.R0-0.5.res -scheme a -order 2 -ptmax 500.01 -fixed_order 3 -small-r -loop-mass t+b -R0 0.5
# process = H    
# collider = pp   
# rts =  13000.000
# M   =    125.000
# muR =    250.000
# muF =    250.000
# Q   =     62.500
# p   =      5.000
# include_c1_squared =   F
# loop_mass  = t+b 
# alphas(MZ) =    0.11800
# alphas(M) =    0.11264
# alphas(muR) =    0.10244
# Rjet =      0.400
# order = NNLL
# pdf name and set = PDF4LHC15_nnlo_mc.LHgrid,    0
# matching scheme = a
# total cross sections [nb] at LO, NLOdiff, NNLOdiff, N3LOdiff =     0.010658    0.014649    0.010464    0.005358
#----------------------------------------------------------------------
# the lines that follow give the jet-veto efficiencies as a function of pt
#         pt            matched eff      resummed eff     fixed-order eff
   2.00000000E+001   4.59072171E-001   5.28673715E-001   4.72417372E-001
   2.50000000E+001   5.48831088E-001   6.11421150E-001   5.58640123E-001
   3.00000000E+001   6.18811394E-001   6.70014595E-001   6.24485219E-001
   3.50000000E+001   6.75688415E-001   7.10992506E-001   6.78169499E-001
   4.00000000E+001   7.21630366E-001   7.39116546E-001   7.21886815E-001
   4.50000000E+001   7.58289954E-001   7.57921329E-001   7.57184541E-001
   5.00000000E+001   7.89916446E-001   7.70105132E-001   7.88190304E-001
   5.50000000E+001   8.15325939E-001   7.77744863E-001   8.13419167E-001
   6.00000000E+001   8.36778916E-001   7.82399780E-001   8.34967174E-001
   6.50000000E+001   8.54900971E-001   7.85180086E-001   8.53310754E-001
   7.00000000E+001   8.71267616E-001   7.86827164E-001   8.69935842E-001
   7.50000000E+001   8.84800652E-001   7.87806700E-001   8.83714379E-001
   8.00000000E+001   8.96597478E-001   7.88397610E-001   8.95724159E-001
   8.50000000E+001   9.07116225E-001   7.88761961E-001   9.06418883E-001
   9.00000000E+001   9.16123120E-001   7.88992649E-001   9.15566959E-001
   9.50000000E+001   9.24559877E-001   7.89142908E-001   9.24115484E-001
   1.00000000E+002   9.31696260E-001   7.89243608E-001   9.31339889E-001
   1.05000000E+002   9.37996849E-001   7.89312980E-001   9.37709541E-001
   1.10000000E+002   9.43466564E-001   7.89361993E-001   9.43233610E-001
   1.15000000E+002   9.48658925E-001   7.89397427E-001   9.48468868E-001
   1.20000000E+002   9.53367848E-001   7.89423576E-001   9.53211816E-001
   1.25000000E+002   9.57292897E-001   7.89443229E-001   9.57164043E-001
   1.30000000E+002   9.61031273E-001   7.89458240E-001   9.60924212E-001
   1.35000000E+002   9.64242898E-001   7.89469872E-001   9.64153428E-001
   1.40000000E+002   9.67455153E-001   7.89479001E-001   9.67379962E-001
   1.45000000E+002   9.70021632E-001   7.89486247E-001   9.69958117E-001
   1.50000000E+002   9.72540725E-001   7.89492059E-001   9.72486795E-001
   1.55000000E+002   9.74785846E-001   7.89496763E-001   9.74739837E-001
   1.60000000E+002   9.76755529E-001   7.89500602E-001   9.76716094E-001
   1.65000000E+002   9.78472084E-001   7.89503759E-001   9.78438140E-001
   1.70000000E+002   9.80283936E-001   7.89506374E-001   9.80254593E-001
   1.75000000E+002   9.81764373E-001   7.89508553E-001   9.81738911E-001
   1.80000000E+002   9.83363862E-001   7.89510380E-001   9.83341681E-001
   1.85000000E+002   9.84522886E-001   7.89511920E-001   9.84503497E-001
   1.90000000E+002   9.85695587E-001   7.89513225E-001   9.85678580E-001
   1.95000000E+002   9.86742318E-001   7.89514336E-001   9.86727353E-001
   2.00000000E+002   9.87880392E-001   7.89515286E-001   9.87867180E-001
   2.05000000E+002   9.88678606E-001   7.89516102E-001   9.88666910E-001
   2.10000000E+002   9.89438817E-001   7.89516805E-001   9.89428433E-001
   2.15000000E+002   9.90251652E-001   7.89517414E-001   9.90242408E-001
   2.20000000E+002   9.91004055E-001   7.89517942E-001   9.90995804E-001
   2.25000000E+002   9.91594354E-001   7.89518403E-001   9.91586972E-001
   2.30000000E+002   9.92161570E-001   7.89518806E-001   9.92154949E-001
   2.35000000E+002   9.92747229E-001   7.89519159E-001   9.92741278E-001
   2.40000000E+002   9.93256620E-001   7.89519470E-001   9.93251258E-001
   2.45000000E+002   9.93749420E-001   7.89519743E-001   9.93744580E-001
