# ./jetvheto -in n3lo-fixed-order/H125-LHC13-R04-mb-475-mt-1725-xmur050-xmuf050-log.fxd -xQ 0.75 -out benchmarks-n3lo-smallR/H125-LHC13-R04-mb-475-mt-1725-xmur050-xmuf050-xQ075-N3LO+NNLLa.res -scheme a -order 2 -ptmax 500.01 -fixed_order 3 -loop-mass t+b
# process = H    
# collider = pp   
# rts =  13000.000
# M   =    125.000
# muR =     62.500
# muF =     62.500
# Q   =     93.750
# p   =      5.000
# include_c1_squared =   F
# loop_mass  = t+b 
# alphas(MZ) =    0.11800
# alphas(M) =    0.11264
# alphas(muR) =    0.12516
# Rjet =      0.400
# order = NNLL
# pdf name and set = PDF4LHC15_nnlo_mc.LHgrid,    0
# matching scheme = a
# total cross sections [nb] at LO, NLOdiff, NNLOdiff, N3LOdiff =     0.014147    0.020254    0.008998    0.001413
#----------------------------------------------------------------------
# the lines that follow give the jet-veto efficiencies as a function of pt
#         pt            matched eff      resummed eff     fixed-order eff
   2.00000000E+001   4.56309400E-001   5.12794823E-001   4.41074844E-001
   2.50000000E+001   5.43866793E-001   5.90903454E-001   5.26291803E-001
   3.00000000E+001   6.17543934E-001   6.45707583E-001   5.99588615E-001
   3.50000000E+001   6.76090533E-001   6.83861272E-001   6.58104134E-001
   4.00000000E+001   7.21232623E-001   7.09996185E-001   7.03699261E-001
   4.50000000E+001   7.60483500E-001   7.27376170E-001   7.43908515E-001
   5.00000000E+001   7.91602438E-001   7.38340487E-001   7.76267730E-001
   5.50000000E+001   8.18387759E-001   7.44614284E-001   8.04438345E-001
   6.00000000E+001   8.40135242E-001   7.47488989E-001   8.27667847E-001
   6.50000000E+001   8.60118553E-001   7.47961618E-001   8.49073502E-001
   7.00000000E+001   8.75366210E-001   7.46812894E-001   8.65767048E-001
   7.50000000E+001   8.88937433E-001   7.44652563E-001   8.80674091E-001
   8.00000000E+001   9.01198604E-001   7.41948553E-001   8.94138038E-001
   8.50000000E+001   9.12096308E-001   7.39044913E-001   9.06106835E-001
   9.00000000E+001   9.21662388E-001   7.36179223E-001   9.16611008E-001
   9.50000000E+001   9.29301854E-001   7.33499815E-001   9.25078477E-001
   1.00000000E+002   9.36632874E-001   7.31087252E-001   9.33101787E-001
   1.05000000E+002   9.42523578E-001   7.28972741E-001   9.39585604E-001
   1.10000000E+002   9.47942630E-001   7.27154947E-001   9.45495190E-001
   1.15000000E+002   9.53138400E-001   7.25613390E-001   9.51094105E-001
   1.20000000E+002   9.57818690E-001   7.24318162E-001   9.56107678E-001
   1.25000000E+002   9.61729273E-001   7.23236267E-001   9.60296277E-001
   1.30000000E+002   9.65141306E-001   7.22335626E-001   9.63938023E-001
   1.35000000E+002   9.68562768E-001   7.21586956E-001   9.67546891E-001
   1.40000000E+002   9.71690997E-001   7.20964583E-001   9.70830250E-001
   1.45000000E+002   9.74396145E-001   7.20446612E-001   9.73664645E-001
   1.50000000E+002   9.76510683E-001   7.20014693E-001   9.75887820E-001
   1.55000000E+002   9.78945487E-001   7.19653629E-001   9.78411529E-001
   1.60000000E+002   9.81127457E-001   7.19350917E-001   9.80668095E-001
   1.65000000E+002   9.82469398E-001   7.19096323E-001   9.82074144E-001
   1.70000000E+002   9.84192395E-001   7.18881483E-001   9.83850040E-001
   1.75000000E+002   9.85818270E-001   7.18699567E-001   9.85520635E-001
   1.80000000E+002   9.87056646E-001   7.18544995E-001   9.86797346E-001
   1.85000000E+002   9.88202052E-001   7.18413202E-001   9.87975392E-001
   1.90000000E+002   9.89371254E-001   7.18300447E-001   9.89172337E-001
   1.95000000E+002   9.90449923E-001   7.18203652E-001   9.90274812E-001
   2.00000000E+002   9.91400944E-001   7.18120286E-001   9.91246363E-001
   2.05000000E+002   9.92159181E-001   7.18048253E-001   9.92022417E-001
   2.10000000E+002   9.92916795E-001   7.17985818E-001   9.92795408E-001
   2.15000000E+002   9.93510877E-001   7.17931538E-001   9.93402921E-001
   2.20000000E+002   9.94355729E-001   7.17884208E-001   9.94259310E-001
   2.25000000E+002   9.94792543E-001   7.17842822E-001   9.94706379E-001
   2.30000000E+002   9.95326582E-001   7.17806531E-001   9.95249343E-001
   2.35000000E+002   9.95723365E-001   7.17774626E-001   9.95654001E-001
   2.40000000E+002   9.96150432E-001   7.17746502E-001   9.96087982E-001
   2.45000000E+002   9.96642080E-001   7.17721652E-001   9.96585702E-001
