# ./jetvheto -in n3lo-fixed-order/H125-LHC13-R04-mb-0-mt-1725-xmur025-xmuf025-log.fxd -xQ 0.5 -out benchmarks-n3lo-smallR/H125-LHC13-R04-mb-0-mt-1725-xmur025-xmuf025-xQ050-N3LO+NNLLb.R0-1.5.res -scheme b -order 2 -ptmax 500.01 -small-r -fixed_order 3 -loop-mass t -R0 1.5
# process = H    
# collider = pp   
# rts =  13000.000
# M   =    125.000
# muR =     31.250
# muF =     31.250
# Q   =     62.500
# p   =      5.000
# include_c1_squared =   F
# loop_mass  = t   
# alphas(MZ) =    0.11800
# alphas(M) =    0.11264
# alphas(muR) =    0.14091
# Rjet =      0.400
# order = NNLL
# pdf name and set = PDF4LHC15_nnlo_mc.LHgrid,    0
# matching scheme = b
# total cross sections [nb] at LO, NLOdiff, NNLOdiff, N3LOdiff =     0.018140    0.025356    0.006043   -0.002471
#----------------------------------------------------------------------
# the lines that follow give the jet-veto efficiencies as a function of pt
#         pt            matched eff      resummed eff     fixed-order eff
   2.00000000E+001   5.02173803E-001   5.04300905E-001   4.87197444E-001
   2.50000000E+001   5.87488430E-001   5.70480113E-001   5.72808377E-001
   3.00000000E+001   6.53491677E-001   6.16405150E-001   6.40033654E-001
   3.50000000E+001   7.05421806E-001   6.47837504E-001   6.93667740E-001
   4.00000000E+001   7.48047169E-001   6.68898417E-001   7.38265029E-001
   4.50000000E+001   7.83776617E-001   6.82560776E-001   7.75885549E-001
   5.00000000E+001   8.13207968E-001   6.91061107E-001   8.06967537E-001
   5.50000000E+001   8.39350998E-001   6.96106988E-001   8.34514649E-001
   6.00000000E+001   8.60388955E-001   6.98959686E-001   8.56658691E-001
   6.50000000E+001   8.76362977E-001   7.00496902E-001   8.73491663E-001
   7.00000000E+001   8.92280479E-001   7.01287054E-001   8.90085568E-001
   7.50000000E+001   9.05785021E-001   7.01672836E-001   9.04105497E-001
   8.00000000E+001   9.16520183E-001   7.01848656E-001   9.15225465E-001
   8.50000000E+001   9.26760774E-001   7.01919357E-001   9.25758034E-001
   9.00000000E+001   9.35726131E-001   7.01939540E-001   9.34943752E-001
   9.50000000E+001   9.41468665E-001   7.01936848E-001   9.40852628E-001
   1.00000000E+002   9.49063620E-001   7.01924911E-001   9.48575677E-001
   1.05000000E+002   9.54204434E-001   7.01910229E-001   9.53814240E-001
   1.10000000E+002   9.60086744E-001   7.01895740E-001   9.59772663E-001
   1.15000000E+002   9.64973462E-001   7.01882637E-001   9.64718601E-001
   1.20000000E+002   9.68422790E-001   7.01871283E-001   9.68214412E-001
   1.25000000E+002   9.71304224E-001   7.01861661E-001   9.71132765E-001
   1.30000000E+002   9.74661575E-001   7.01853605E-001   9.74519594E-001
   1.35000000E+002   9.77216865E-001   7.01846898E-001   9.77098521E-001
   1.40000000E+002   9.79738988E-001   7.01841327E-001   9.79639817E-001
   1.45000000E+002   9.82055619E-001   7.01836699E-001   9.81972039E-001
   1.50000000E+002   9.83934817E-001   7.01832849E-001   9.83864021E-001
   1.55000000E+002   9.85679195E-001   7.01829639E-001   9.85618934E-001
   1.60000000E+002   9.87752395E-001   7.01826954E-001   9.87700872E-001
   1.65000000E+002   9.88998826E-001   7.01824701E-001   9.88954556E-001
   1.70000000E+002   9.89921279E-001   7.01822804E-001   9.89883087E-001
   1.75000000E+002   9.91425475E-001   7.01821200E-001   9.91392403E-001
   1.80000000E+002   9.92159721E-001   7.01819839E-001   9.92130965E-001
   1.85000000E+002   9.93277489E-001   7.01818681E-001   9.93252407E-001
   1.90000000E+002   9.94016908E-001   7.01817691E-001   9.93994946E-001
   1.95000000E+002   9.94956684E-001   7.01816842E-001   9.94937393E-001
   2.00000000E+002   9.95450134E-001   7.01816112E-001   9.95433136E-001
   2.05000000E+002   9.95984019E-001   7.01815481E-001   9.95968995E-001
   2.10000000E+002   9.96463815E-001   7.01814935E-001   9.96450497E-001
   2.15000000E+002   9.97154232E-001   7.01814460E-001   9.97142399E-001
   2.20000000E+002   9.97486695E-001   7.01814047E-001   9.97476149E-001
   2.25000000E+002   9.98030121E-001   7.01813685E-001   9.98020700E-001
   2.30000000E+002   9.98322699E-001   7.01813369E-001   9.98314264E-001
   2.35000000E+002   9.98435776E-001   7.01813090E-001   9.98428204E-001
   2.40000000E+002   9.98842502E-001   7.01812845E-001   9.98835691E-001
   2.45000000E+002   9.99148284E-001   7.01812628E-001   9.99142145E-001
