# ./jetvheto -in n3lo-fixed-order/H125-LHC13-R04-mb-475-mt-1725-xmur025-xmuf050-log.fxd -xQ 0.5 -out benchmarks-n3lo-smallR/H125-LHC13-R04-mb-475-mt-1725-xmur025-xmuf050-xQ050-N3LO+NNLLa.R0-1.5.res -scheme a -order 2 -ptmax 500.01 -fixed_order 3 -small-r -loop-mass t+b -R0 1.5
# process = H    
# collider = pp   
# rts =  13000.000
# M   =    125.000
# muR =     31.250
# muF =     62.500
# Q   =     62.500
# p   =      5.000
# include_c1_squared =   F
# loop_mass  = t+b 
# alphas(MZ) =    0.11800
# alphas(M) =    0.11264
# alphas(muR) =    0.14091
# Rjet =      0.400
# order = NNLL
# pdf name and set = PDF4LHC15_nnlo_mc.LHgrid,    0
# matching scheme = a
# total cross sections [nb] at LO, NLOdiff, NNLOdiff, N3LOdiff =     0.017683    0.024805    0.005009   -0.002663
#----------------------------------------------------------------------
# the lines that follow give the jet-veto efficiencies as a function of pt
#         pt            matched eff      resummed eff     fixed-order eff
   2.00000000E+001   4.74219263E-001   4.82624460E-001   4.46607809E-001
   2.50000000E+001   5.53569605E-001   5.43048342E-001   5.29091423E-001
   3.00000000E+001   6.24338941E-001   5.84576161E-001   6.04995778E-001
   3.50000000E+001   6.80292954E-001   6.12721488E-001   6.65141973E-001
   4.00000000E+001   7.22026827E-001   6.31340693E-001   7.10209715E-001
   4.50000000E+001   7.60594739E-001   6.43213646E-001   7.51667982E-001
   5.00000000E+001   7.90560548E-001   6.50429301E-001   7.83854807E-001
   5.50000000E+001   8.17472579E-001   6.54569774E-001   8.12489362E-001
   6.00000000E+001   8.39087929E-001   6.56795077E-001   8.35391522E-001
   6.50000000E+001   8.60389710E-001   6.57901177E-001   8.57640710E-001
   7.00000000E+001   8.75526535E-001   6.58395522E-001   8.73471931E-001
   7.50000000E+001   8.89572439E-001   6.58577354E-001   8.88027309E-001
   8.00000000E+001   9.02630987E-001   6.58611041E-001   9.01457188E-001
   8.50000000E+001   9.14363459E-001   6.58581330E-001   9.13463104E-001
   9.00000000E+001   9.24704235E-001   6.58529629E-001   9.24006495E-001
   9.50000000E+001   9.32436234E-001   6.58474765E-001   9.31891873E-001
   1.00000000E+002   9.40188796E-001   6.58424435E-001   9.39759362E-001
   1.05000000E+002   9.45942393E-001   6.58381124E-001   9.45601410E-001
   1.10000000E+002   9.51330180E-001   6.58345018E-001   9.51056796E-001
   1.15000000E+002   9.56700863E-001   6.58315400E-001   9.56479795E-001
   1.20000000E+002   9.61523700E-001   6.58291288E-001   9.61343529E-001
   1.25000000E+002   9.65252331E-001   6.58271712E-001   9.65104556E-001
   1.30000000E+002   9.68431529E-001   6.58255812E-001   9.68309576E-001
   1.35000000E+002   9.71876664E-001   6.58242871E-001   9.71775236E-001
   1.40000000E+002   9.75017121E-001   6.58232304E-001   9.74932267E-001
   1.45000000E+002   9.77630996E-001   6.58223641E-001   9.77559644E-001
   1.50000000E+002   9.79352775E-001   6.58216508E-001   9.79292492E-001
   1.55000000E+002   9.81841648E-001   6.58210608E-001   9.81790391E-001
   1.60000000E+002   9.84043329E-001   6.58205707E-001   9.83999542E-001
   1.65000000E+002   9.84892971E-001   6.58201615E-001   9.84855464E-001
   1.70000000E+002   9.86560811E-001   6.58198185E-001   9.86528488E-001
   1.75000000E+002   9.88153823E-001   6.58195296E-001   9.88125850E-001
   1.80000000E+002   9.89191586E-001   6.58192852E-001   9.89167305E-001
   1.85000000E+002   9.90142069E-001   6.58190777E-001   9.90120912E-001
   1.90000000E+002   9.91232033E-001   6.58189007E-001   9.91213525E-001
   1.95000000E+002   9.92250904E-001   6.58187493E-001   9.92234660E-001
   2.00000000E+002   9.93120446E-001   6.58186192E-001   9.93106144E-001
   2.05000000E+002   9.93704822E-001   6.58185070E-001   9.93692194E-001
   2.10000000E+002   9.94374991E-001   6.58184099E-001   9.94363808E-001
   2.15000000E+002   9.94781226E-001   6.58183257E-001   9.94771297E-001
   2.20000000E+002   9.95695426E-001   6.58182523E-001   9.95686578E-001
   2.25000000E+002   9.95950697E-001   6.58181882E-001   9.95942802E-001
   2.30000000E+002   9.96386482E-001   6.58181321E-001   9.96379414E-001
   2.35000000E+002   9.96646779E-001   6.58180828E-001   9.96640440E-001
   2.40000000E+002   9.96989721E-001   6.58180394E-001   9.96984021E-001
   2.45000000E+002   9.97491328E-001   6.58180011E-001   9.97486190E-001
