# ./jetvheto -in n3lo-fixed-order/H125-LHC13-R04-mb-475-mt-1725-xmur025-xmuf050-log.fxd -xQ 0.5 -out benchmarks-n3lo-smallR/H125-LHC13-R04-mb-475-mt-1725-xmur025-xmuf050-xQ050-NNLO+NNLLb.R0-2.0.res -scheme b -order 2 -ptmax 500.01 -fixed_order 2 -small-r -loop-mass t+b -R0 2.0
# process = H    
# collider = pp   
# rts =  13000.000
# M   =    125.000
# muR =     31.250
# muF =     62.500
# Q   =     62.500
# p   =      5.000
# include_c1_squared =   F
# loop_mass  = t+b 
# alphas(MZ) =    0.11800
# alphas(M) =    0.11264
# alphas(muR) =    0.14091
# Rjet =      0.400
# order = NNLL
# pdf name and set = PDF4LHC15_nnlo_mc.LHgrid,    0
# matching scheme = b
# total cross sections [nb] at LO, NLOdiff, NNLOdiff, N3LOdiff =     0.017683    0.024805    0.005009   -0.002663
#----------------------------------------------------------------------
# the lines that follow give the jet-veto efficiencies as a function of pt
#         pt            matched eff      resummed eff     fixed-order eff
   2.00000000E+001   4.61549625E-001   4.93938207E-001   3.45013482E-001
   2.50000000E+001   5.37499664E-001   5.50948105E-001   4.46678028E-001
   3.00000000E+001   5.99147667E-001   5.90111155E-001   5.28145480E-001
   3.50000000E+001   6.49730268E-001   6.16604134E-001   5.94218939E-001
   4.00000000E+001   6.91693991E-001   6.34062821E-001   6.48501749E-001
   4.50000000E+001   7.27312587E-001   6.45120489E-001   6.93918270E-001
   5.00000000E+001   7.57830978E-001   6.51765539E-001   7.32217372E-001
   5.50000000E+001   7.84164124E-001   6.55508845E-001   7.64650938E-001
   6.00000000E+001   8.07193425E-001   6.57458970E-001   7.92387018E-001
   6.50000000E+001   8.27483825E-001   6.58374719E-001   8.16263144E-001
   7.00000000E+001   8.45590065E-001   6.58737086E-001   8.37069884E-001
   7.50000000E+001   8.61480026E-001   6.58826851E-001   8.54982301E-001
   8.00000000E+001   8.75716691E-001   6.58795722E-001   8.70729506E-001
   8.50000000E+001   8.88453460E-001   6.58719869E-001   8.84596193E-001
   9.00000000E+001   8.99756477E-001   6.58634914E-001   8.96749054E-001
   9.50000000E+001   9.09739700E-001   6.58555778E-001   9.07374553E-001
   1.00000000E+002   9.18742062E-001   6.58487506E-001   9.16865875E-001
   1.05000000E+002   9.26727141E-001   6.58430769E-001   9.25226146E-001
   1.10000000E+002   9.33870796E-001   6.58384497E-001   9.32660346E-001
   1.15000000E+002   9.40296424E-001   6.58347096E-001   9.39312551E-001
   1.20000000E+002   9.46053446E-001   6.58316961E-001   9.45247859E-001
   1.25000000E+002   9.51283677E-001   6.58292679E-001   9.50619386E-001
   1.30000000E+002   9.55905617E-001   6.58273067E-001   9.55354243E-001
   1.35000000E+002   9.60102637E-001   6.58257173E-001   9.59642145E-001
   1.40000000E+002   9.63907555E-001   6.58244238E-001   9.63520673E-001
   1.45000000E+002   9.67314684E-001   6.58233661E-001   9.66987843E-001
   1.50000000E+002   9.70439413E-001   6.58224970E-001   9.70161843E-001
   1.55000000E+002   9.73251611E-001   6.58217794E-001   9.73014721E-001
   1.60000000E+002   9.75794910E-001   6.58211840E-001   9.75591796E-001
   1.65000000E+002   9.78077503E-001   6.58206875E-001   9.77902582E-001
   1.70000000E+002   9.80162877E-001   6.58202717E-001   9.80011610E-001
   1.75000000E+002   9.82091599E-001   6.58199217E-001   9.81960264E-001
   1.80000000E+002   9.83793747E-001   6.58196259E-001   9.83679291E-001
   1.85000000E+002   9.85372466E-001   6.58193748E-001   9.85272360E-001
   1.90000000E+002   9.86810932E-001   6.58191608E-001   9.86723082E-001
   1.95000000E+002   9.88107030E-001   6.58189777E-001   9.88029685E-001
   2.00000000E+002   9.89283617E-001   6.58188204E-001   9.89215313E-001
   2.05000000E+002   9.90370696E-001   6.58186849E-001   9.90310198E-001
   2.10000000E+002   9.91326361E-001   6.58185676E-001   9.91272628E-001
   2.15000000E+002   9.92240014E-001   6.58184659E-001   9.92192159E-001
   2.20000000E+002   9.93074571E-001   6.58183773E-001   9.93031843E-001
   2.25000000E+002   9.93788913E-001   6.58182999E-001   9.93750669E-001
   2.30000000E+002   9.94511321E-001   6.58182322E-001   9.94477010E-001
   2.35000000E+002   9.95121069E-001   6.58181727E-001   9.95090217E-001
   2.40000000E+002   9.95692408E-001   6.58181203E-001   9.95664606E-001
   2.45000000E+002   9.96207465E-001   6.58180741E-001   9.96182360E-001
