# ./jetvheto -in n3lo-fixed-order/H125-LHC13-R04-mb-0-mt-1725-xmur050-xmuf100-log.fxd -xQ 0.0625 -out benchmarks-n3lo-smallR/H125-LHC13-R04-mb-0-mt-1725-xmur050-xmuf100-xQ0625-NNLO+NNLLb.R0-0.5.res -scheme b -order 2 -ptmax 500.01 -small-r -fixed_order 2 -loop-mass t -R0 0.5
# process = H    
# collider = pp   
# rts =  13000.000
# M   =    125.000
# muR =     62.500
# muF =    125.000
# Q   =      7.812
# p   =      5.000
# include_c1_squared =   F
# loop_mass  = t   
# alphas(MZ) =    0.11800
# alphas(M) =    0.11264
# alphas(muR) =    0.12516
# Rjet =      0.400
# order = NNLL
# pdf name and set = PDF4LHC15_nnlo_mc.LHgrid,    0
# matching scheme = b
# total cross sections [nb] at LO, NLOdiff, NNLOdiff, N3LOdiff =     0.016868    0.020591    0.008553    0.000949
#----------------------------------------------------------------------
# the lines that follow give the jet-veto efficiencies as a function of pt
#         pt            matched eff      resummed eff     fixed-order eff
   2.00000000E+001   3.54390577E-001   1.78503501E-001   3.53874297E-001
   2.50000000E+001   4.59873200E-001   1.78880519E-001   4.59741637E-001
   3.00000000E+001   5.41880568E-001   1.78990943E-001   5.41840375E-001
   3.50000000E+001   6.07217191E-001   1.79030867E-001   6.07203422E-001
   4.00000000E+001   6.60387098E-001   1.79047620E-001   6.60382096E-001
   4.50000000E+001   7.04078446E-001   1.79055474E-001   7.04076620E-001
   5.00000000E+001   7.40609435E-001   1.79059484E-001   7.40608827E-001
   5.50000000E+001   7.71364802E-001   1.79061676E-001   7.71364670E-001
   6.00000000E+001   7.97692102E-001   1.79062943E-001   7.97692154E-001
   6.50000000E+001   8.20307300E-001   1.79063710E-001   8.20307414E-001
   7.00000000E+001   8.39736907E-001   1.79064192E-001   8.39737032E-001
   7.50000000E+001   8.56718443E-001   1.79064506E-001   8.56718559E-001
   8.00000000E+001   8.71580752E-001   1.79064716E-001   8.71580854E-001
   8.50000000E+001   8.84514667E-001   1.79064860E-001   8.84514754E-001
   9.00000000E+001   8.95980746E-001   1.79064961E-001   8.95980819E-001
   9.50000000E+001   9.06043308E-001   1.79065034E-001   9.06043369E-001
   1.00000000E+002   9.14992456E-001   1.79065087E-001   9.14992506E-001
   1.05000000E+002   9.22958028E-001   1.79065126E-001   9.22958070E-001
   1.10000000E+002   9.29978308E-001   1.79065155E-001   9.29978343E-001
   1.15000000E+002   9.36336026E-001   1.79065178E-001   9.36336055E-001
   1.20000000E+002   9.41983429E-001   1.79065195E-001   9.41983453E-001
   1.25000000E+002   9.47088882E-001   1.79065208E-001   9.47088902E-001
   1.30000000E+002   9.51688739E-001   1.79065219E-001   9.51688757E-001
   1.35000000E+002   9.55834490E-001   1.79065227E-001   9.55834505E-001
   1.40000000E+002   9.59548179E-001   1.79065234E-001   9.59548192E-001
   1.45000000E+002   9.62983563E-001   1.79065239E-001   9.62983574E-001
   1.50000000E+002   9.66018706E-001   1.79065244E-001   9.66018715E-001
   1.55000000E+002   9.68822030E-001   1.79065247E-001   9.68822038E-001
   1.60000000E+002   9.71385863E-001   1.79065250E-001   9.71385869E-001
   1.65000000E+002   9.73694760E-001   1.79065253E-001   9.73694766E-001
   1.70000000E+002   9.75820822E-001   1.79065255E-001   9.75820827E-001
   1.75000000E+002   9.77721175E-001   1.79065256E-001   9.77721179E-001
   1.80000000E+002   9.79485615E-001   1.79065258E-001   9.79485619E-001
   1.85000000E+002   9.81078351E-001   1.79065259E-001   9.81078354E-001
   1.90000000E+002   9.82554375E-001   1.79065260E-001   9.82554378E-001
   1.95000000E+002   9.83923962E-001   1.79065261E-001   9.83923965E-001
   2.00000000E+002   9.85157275E-001   1.79065262E-001   9.85157277E-001
   2.05000000E+002   9.86310486E-001   1.79065262E-001   9.86310488E-001
   2.10000000E+002   9.87349269E-001   1.79065263E-001   9.87349271E-001
   2.15000000E+002   9.88290055E-001   1.79065263E-001   9.88290057E-001
   2.20000000E+002   9.89178617E-001   1.79065264E-001   9.89178618E-001
   2.25000000E+002   9.89988315E-001   1.79065264E-001   9.89988317E-001
   2.30000000E+002   9.90737087E-001   1.79065265E-001   9.90737088E-001
   2.35000000E+002   9.91443285E-001   1.79065265E-001   9.91443286E-001
   2.40000000E+002   9.92070207E-001   1.79065265E-001   9.92070208E-001
   2.45000000E+002   9.92663006E-001   1.79065265E-001   9.92663007E-001
