# python build-Q2-histos.py --mtQ1file ../../JetVHeto/benchmarks-n3lo-smallR/H125-LHC13-R04-mb-0-mt-1725-xmur025-xmuf025-xQ050-N3LO+NNLLa.R0-1.0.res --mtQ2file ../../JetVHeto/benchmarks-n3lo-smallR/H125-LHC13-R04-mb-0-mt-1725-xmur025-xmuf025-xQ025-N3LO+NNLLa.R0-1.0.res --mtmbQ2file ../../JetVHeto/benchmarks-n3lo-smallR/H125-LHC13-R04-mb-475-mt-1725-xmur025-xmuf025-xQ025-N3LO+NNLLa.R0-1.0.res
# process = H    
# collider = pp   
# rts =  13000.000
# M   =    125.000
# muR =     31.250
# muF =     31.250
# Q1  =  62.500; Q2  =  31.250
# p   =      5.000
# include_c1_squared =   F
# loop_mass  = t+b 
# alphas(MZ) =    0.11800
# alphas(M) =    0.11264
# alphas(muR) =    0.14091
# Rjet =      0.400
# order = NNLL
# pdf name and set = PDF4LHC15_nnlo_mc.LHgrid,    0
# matching scheme = a
# total cross sections [nb] at LO, NLOdiff, NNLOdiff, N3LOdiff =     0.016156    0.025248    0.006043   -0.002471
#----------------------------------------------------------------------
# the lines that follow give the jet-veto efficiencies as a function of pt
#         pt            matched eff      resummed eff     fixed-order eff
20.0 0.466732103309 0.470935489198 0.444433789
25.0 0.553624017583 0.537226206899 0.533622985
30.0 0.621664349614 0.583943146848 0.604415621
35.0 0.675919663076 0.616506815449 0.661550274
40.0 0.72100297517 0.638696191802 0.709498756
45.0 0.759349030507 0.653297027667 0.750373558
50.0 0.791161911033 0.66249916301 0.784261834
55.0 0.819664870857 0.668036308035 0.814443054
60.0 0.842743496637 0.671219117602 0.838789906
65.0 0.860345271748 0.672973375103 0.857342801
70.0 0.878055966774 0.67390533944 0.875785457
75.0 0.893063545197 0.674384309937 0.89133998
80.0 0.905052026219 0.674622225678 0.903730538
85.0 0.916619710316 0.674735067415 0.915600559
90.0 0.926683366163 0.674784429374 0.925890654
95.0 0.933181294699 0.674802349573 0.93255821
100.0 0.941665618845 0.674805254169 0.94117307
105.0 0.947481409679 0.674801446633 0.947087958
110.0 0.954110019532 0.674795057085 0.953793702
115.0 0.95961388293 0.674788073594 0.959357429
120.0 0.963560719189 0.674781406042 0.963351142
125.0 0.966895540793 0.674775415846 0.966723166
130.0 0.970717450294 0.674770205376 0.970574784
135.0 0.973643231272 0.674765747726 0.973524354
140.0 0.976497471701 0.674761975592 0.97639789
145.0 0.979149721973 0.674758795391 0.979065823
150.0 0.981319577228 0.674756121123 0.98124853
155.0 0.983332239557 0.674753871438 0.983271782
160.0 0.98569727761 0.67475197636 0.985645607
165.0 0.987132998293 0.674750378771 0.987088609
170.0 0.988223178445 0.674749025812 0.988184889
175.0 0.989940069133 0.674747877877 0.989906922
180.0 0.990790372148 0.674746902384 0.990761554
185.0 0.992064317885 0.674746069218 0.992039188
190.0 0.992921847297 0.674745354959 0.992899847
195.0 0.993989719013 0.6747447427 0.9939704
200.0 0.994576144916 0.674744214768 0.994559124
205.0 0.99519651654 0.674743757812 0.995181474
210.0 0.995747336607 0.674743362811 0.995734005
215.0 0.996541547208 0.674743017786 0.996529704
220.0 0.996938522229 0.67474271804 0.996927968
225.0 0.997548817181 0.67474245597 0.997539392
230.0 0.997891132132 0.674742224969 0.997882693
235.0 0.998048124293 0.674742023665 0.99804055
240.0 0.998516976827 0.674741843595 0.998510165
245.0 0.998856915174 0.674741686617 0.998850776
