# python build-Q2-histos.py --mtQ1file ../../JetVHeto/benchmarks-n3lo-smallR/H125-LHC13-R04-mb-0-mt-1725-xmur025-xmuf050-xQ050-NNLO+NNLLb.R0-1.0.res --mtQ2file ../../JetVHeto/benchmarks-n3lo-smallR/H125-LHC13-R04-mb-0-mt-1725-xmur025-xmuf050-xQ0625-NNLO+NNLLb.R0-1.0.res --mtmbQ2file ../../JetVHeto/benchmarks-n3lo-smallR/H125-LHC13-R04-mb-475-mt-1725-xmur025-xmuf050-xQ0625-NNLO+NNLLb.R0-1.0.res
# process = H    
# collider = pp   
# rts =  13000.000
# M   =    125.000
# muR =     31.250
# muF =     62.500
# Q1  =  62.500; Q2  =  7.812
# p   =      5.000
# include_c1_squared =   F
# loop_mass  = t+b 
# alphas(MZ) =    0.11800
# alphas(M) =    0.11264
# alphas(muR) =    0.14091
# Rjet =      0.400
# order = NNLL
# pdf name and set = PDF4LHC15_nnlo_mc.LHgrid,    0
# matching scheme = b
# total cross sections [nb] at LO, NLOdiff, NNLOdiff, N3LOdiff =     0.017683    0.024805    0.005009   -0.002663
#----------------------------------------------------------------------
# the lines that follow give the jet-veto efficiencies as a function of pt
#         pt            matched eff      resummed eff     fixed-order eff
20.0 0.446577674591 0.525550349559 0.345013482
25.0 0.527069570339 0.596110973296 0.446678028
30.0 0.591652831158 0.64468973393 0.52814548
35.0 0.644235438765 0.677695997647 0.594218939
40.0 0.687622728964 0.699618270364 0.648501749
45.0 0.724251510957 0.713687233238 0.69391827
50.0 0.755547444075 0.722324196905 0.732217372
55.0 0.782443946742 0.727359629167 0.764650938
60.0 0.805903983867 0.730135744895 0.792387018
65.0 0.826518155996 0.731576057326 0.816263144
70.0 0.844861439536 0.732272609522 0.837069884
75.0 0.860927396607 0.732577822943 0.854982301
80.0 0.875294111263 0.732688132772 0.870729506
85.0 0.888127343375 0.732707137991 0.884596193
90.0 0.899503034152 0.732687255215 0.896749054
95.0 0.909540690661 0.732653754518 0.907374553
100.0 0.918584561348 0.732618152704 0.916865875
105.0 0.926601025771 0.732585249495 0.925226146
110.0 0.933769120357 0.732556662563 0.932660346
115.0 0.940213757266 0.732532588599 0.939312551
120.0 0.945985799379 0.732512636163 0.945247859
125.0 0.951227923263 0.732496229128 0.950619386
130.0 0.955859331285 0.732482780268 0.955354243
135.0 0.960063965819 0.732471756295 0.959642145
140.0 0.963875060463 0.732462706209 0.963520673
145.0 0.967287251087 0.732455256197 0.966987843
150.0 0.970416128968 0.732449101348 0.970161843
155.0 0.973231741173 0.732443997786 0.973014721
160.0 0.975777877911 0.732439748555 0.975591796
165.0 0.978062839611 0.732436194802 0.977902582
170.0 0.980150204427 0.732433211619 0.98001161
175.0 0.98208059308 0.732430695442 0.981960264
180.0 0.983784155684 0.732428565643 0.983679291
185.0 0.985364078487 0.73242675521 0.98527236
190.0 0.98680357155 0.732425210736 0.986723082
195.0 0.988100550746 0.732423888254 0.988029685
200.0 0.989277897353 0.732422751101 0.989215313
205.0 0.990365630764 0.732421769973 0.990310198
210.0 0.991321863069 0.732420920773 0.991272628
215.0 0.992236007817 0.732420183616 0.992192159
220.0 0.993070994595 0.732419541848 0.993031843
225.0 0.993785712881 0.732418981549 0.993750669
230.0 0.994508450862 0.732418489414 0.99447701
235.0 0.995118488337 0.732418058006 0.995090217
240.0 0.995690082667 0.732417677909 0.995664606
245.0 0.996205365547 0.73241734179 0.99618236
