# ./jetvheto -in n3lo-fixed-order/H125-LHC13-R04-heft-xmur050-xmuf050-log.fxd -xQ 0.25 -out benchmarks-n3lo-smallR/H125-LHC13-R04-heft-xmur050-xmuf050-xQ025-NNLO+NNLLa.R0-1.0.res -scheme a -order 2 -ptmax 500.01 -fixed_order 2 -small-r -R0 1.0
# process = H    
# collider = pp   
# rts =  13000.000
# M   =    125.000
# muR =     62.500
# muF =     62.500
# Q   =     31.250
# p   =      5.000
# include_c1_squared =   F
# loop_mass  = none
# alphas(MZ) =    0.11800
# alphas(M) =    0.11264
# alphas(muR) =    0.12516
# Rjet =      0.400
# order = NNLL
# pdf name and set = PDF4LHC15_nnlo_mc.LHgrid,    0
# matching scheme = a
# total cross sections [nb] at LO, NLOdiff, NNLOdiff, N3LOdiff =     0.015055    0.019611    0.008998    0.001413
#----------------------------------------------------------------------
# the lines that follow give the jet-veto efficiencies as a function of pt
#         pt            matched eff      resummed eff     fixed-order eff
   2.00000000E+001   4.57265101E-001   4.91899163E-001   4.60803594E-001
   2.50000000E+001   5.43464375E-001   5.61050378E-001   5.46887027E-001
   3.00000000E+001   6.11618577E-001   6.01998396E-001   6.14137214E-001
   3.50000000E+001   6.65991463E-001   6.24391096E-001   6.67697748E-001
   4.00000000E+001   7.10250333E-001   6.36189452E-001   7.11386119E-001
   4.50000000E+001   7.46811733E-001   6.42435436E-001   7.47572136E-001
   5.00000000E+001   7.77427083E-001   6.45841054E-001   7.77943884E-001
   5.50000000E+001   8.03312222E-001   6.47771757E-001   8.03669340E-001
   6.00000000E+001   8.25318699E-001   6.48911103E-001   8.25569926E-001
   6.50000000E+001   8.44286478E-001   6.49609301E-001   8.44466421E-001
   7.00000000E+001   8.60773121E-001   6.50052039E-001   8.60904291E-001
   7.50000000E+001   8.75010562E-001   6.50341489E-001   8.75107581E-001
   8.00000000E+001   8.87510340E-001   6.50535929E-001   8.87583197E-001
   8.50000000E+001   8.98519942E-001   6.50669737E-001   8.98575401E-001
   9.00000000E+001   9.08251528E-001   6.50763824E-001   9.08294278E-001
   9.50000000E+001   9.16798541E-001   6.50831269E-001   9.16831850E-001
   1.00000000E+002   9.24410022E-001   6.50880461E-001   9.24436265E-001
   1.05000000E+002   9.31144026E-001   6.50916907E-001   9.31164894E-001
   1.10000000E+002   9.37191520E-001   6.50944295E-001   9.37208272E-001
   1.15000000E+002   9.42581887E-001   6.50965145E-001   9.42595447E-001
   1.20000000E+002   9.47440268E-001   6.50981206E-001   9.47451332E-001
   1.25000000E+002   9.51817596E-001   6.50993713E-001   9.51826691E-001
   1.30000000E+002   9.55732452E-001   6.51003551E-001   9.55739978E-001
   1.35000000E+002   9.59293886E-001   6.51011360E-001   9.59300155E-001
   1.40000000E+002   9.62519904E-001   6.51017613E-001   9.62525156E-001
   1.45000000E+002   9.65411915E-001   6.51022659E-001   9.65416341E-001
   1.50000000E+002   9.68069703E-001   6.51026762E-001   9.68073453E-001
   1.55000000E+002   9.70466372E-001   6.51030120E-001   9.70469565E-001
   1.60000000E+002   9.72670222E-001   6.51032888E-001   9.72672954E-001
   1.65000000E+002   9.74657267E-001   6.51035182E-001   9.74659615E-001
   1.70000000E+002   9.76496169E-001   6.51037094E-001   9.76498194E-001
   1.75000000E+002   9.78191245E-001   6.51038697E-001   9.78193000E-001
   1.80000000E+002   9.79722192E-001   6.51040047E-001   9.79723719E-001
   1.85000000E+002   9.81134927E-001   6.51041190E-001   9.81136260E-001
   1.90000000E+002   9.82437723E-001   6.51042162E-001   9.82438890E-001
   1.95000000E+002   9.83624567E-001   6.51042992E-001   9.83625593E-001
   2.00000000E+002   9.84719787E-001   6.51043703E-001   9.84720691E-001
   2.05000000E+002   9.85742553E-001   6.51044316E-001   9.85743353E-001
   2.10000000E+002   9.86672007E-001   6.51044845E-001   9.86672717E-001
   2.15000000E+002   9.87544410E-001   6.51045303E-001   9.87545040E-001
   2.20000000E+002   9.88352136E-001   6.51045702E-001   9.88352698E-001
   2.25000000E+002   9.89076337E-001   6.51046050E-001   9.89076840E-001
   2.30000000E+002   9.89791167E-001   6.51046354E-001   9.89791617E-001
   2.35000000E+002   9.90421433E-001   6.51046621E-001   9.90421838E-001
   2.40000000E+002   9.91018644E-001   6.51046857E-001   9.91019008E-001
   2.45000000E+002   9.91573778E-001   6.51047064E-001   9.91574107E-001
