# ./jetvheto -in n3lo-fixed-order/H125-LHC13-R04-mb-475-mt-1725-xmur100-xmuf100-log.fxd -xQ 1.0 -out benchmarks-n3lo-smallR/H125-LHC13-R04-mb-475-mt-1725-xmur100-xmuf100-xQ100-N3LO+NNLLa.R0-1.5.res -scheme a -order 2 -ptmax 500.01 -fixed_order 3 -small-r -loop-mass t+b -R0 1.5
# process = H    
# collider = pp   
# rts =  13000.000
# M   =    125.000
# muR =    125.000
# muF =    125.000
# Q   =    125.000
# p   =      5.000
# include_c1_squared =   F
# loop_mass  = t+b 
# alphas(MZ) =    0.11800
# alphas(M) =    0.11264
# alphas(muR) =    0.11264
# Rjet =      0.400
# order = NNLL
# pdf name and set = PDF4LHC15_nnlo_mc.LHgrid,    0
# matching scheme = a
# total cross sections [nb] at LO, NLOdiff, NNLOdiff, N3LOdiff =     0.012292    0.016994    0.010146    0.003834
#----------------------------------------------------------------------
# the lines that follow give the jet-veto efficiencies as a function of pt
#         pt            matched eff      resummed eff     fixed-order eff
   2.00000000E+001   4.82919735E-001   5.87710639E-001   4.51319368E-001
   2.50000000E+001   5.70123971E-001   6.70589029E-001   5.36825698E-001
   3.00000000E+001   6.43395391E-001   7.28418222E-001   6.08858675E-001
   3.50000000E+001   7.00330755E-001   7.68453828E-001   6.64947540E-001
   4.00000000E+001   7.45871960E-001   7.95701822E-001   7.10355778E-001
   4.50000000E+001   7.82410716E-001   8.13620608E-001   7.47456588E-001
   5.00000000E+001   8.12911288E-001   8.24660944E-001   7.78978104E-001
   5.50000000E+001   8.38510256E-001   8.30599996E-001   8.05930820E-001
   6.00000000E+001   8.59637661E-001   8.32739677E-001   8.28717070E-001
   6.50000000E+001   8.78233413E-001   8.32054534E-001   8.49064316E-001
   7.00000000E+001   8.93494348E-001   8.29295318E-001   8.66268025E-001
   7.50000000E+001   9.05656424E-001   8.25048477E-001   8.80530885E-001
   8.00000000E+001   9.16141852E-001   8.19781600E-001   8.93116387E-001
   8.50000000E+001   9.25452789E-001   8.13870883E-001   9.04462211E-001
   9.00000000E+001   9.33171303E-001   8.07620776E-001   9.14193494E-001
   9.50000000E+001   9.40163319E-001   8.01273934E-001   9.23082480E-001
   1.00000000E+002   9.45758311E-001   7.95022229E-001   9.30511231E-001
   1.05000000E+002   9.50745290E-001   7.89012036E-001   9.37200842E-001
   1.10000000E+002   9.55180331E-001   7.83348813E-001   9.43198469E-001
   1.15000000E+002   9.59143996E-001   7.78102921E-001   9.48587632E-001
   1.20000000E+002   9.62501323E-001   7.73313529E-001   9.53237889E-001
   1.25000000E+002   9.65417037E-001   7.68994371E-001   9.57315271E-001
   1.30000000E+002   9.68454624E-001   7.65139324E-001   9.61366818E-001
   1.35000000E+002   9.71126117E-001   7.61727789E-001   9.64936627E-001
   1.40000000E+002   9.73324438E-001   7.58729542E-001   9.67929190E-001
   1.45000000E+002   9.75505700E-001   7.56108819E-001   9.70799436E-001
   1.50000000E+002   9.77335762E-001   7.53827557E-001   9.73231918E-001
   1.55000000E+002   9.79433903E-001   7.51847710E-001   9.75845039E-001
   1.60000000E+002   9.80747838E-001   7.50132856E-001   9.77615642E-001
   1.65000000E+002   9.82265874E-001   7.48649234E-001   9.79523686E-001
   1.70000000E+002   9.83594669E-001   7.47366234E-001   9.81190793E-001
   1.75000000E+002   9.84925979E-001   7.46256566E-001   9.82813463E-001
   1.80000000E+002   9.86152766E-001   7.45296218E-001   9.84292712E-001
   1.85000000E+002   9.87270578E-001   7.44464257E-001   9.85629591E-001
   1.90000000E+002   9.88014646E-001   7.43742573E-001   9.86566035E-001
   1.95000000E+002   9.89053545E-001   7.43115576E-001   9.87769612E-001
   2.00000000E+002   9.89931251E-001   7.42569895E-001   9.88791277E-001
   2.05000000E+002   9.90681401E-001   7.42094093E-001   9.89667405E-001
   2.10000000E+002   9.91362724E-001   7.41678403E-001   9.90458863E-001
   2.15000000E+002   9.92131354E-001   7.41314488E-001   9.91323305E-001
   2.20000000E+002   9.92678820E-001   7.40995235E-001   9.91955592E-001
   2.25000000E+002   9.93268537E-001   7.40714572E-001   9.92619584E-001
   2.30000000E+002   9.93819426E-001   7.40467312E-001   9.93235932E-001
   2.35000000E+002   9.94330463E-001   7.40249022E-001   9.93804803E-001
   2.40000000E+002   9.94666890E-001   7.40055902E-001   9.94192740E-001
   2.45000000E+002   9.95142463E-001   7.39884699E-001   9.94713610E-001
