# ./jetvheto -in n3lo-fixed-order/H125-LHC13-R04-mb-0-mt-1725-xmur100-xmuf200-log.fxd -xQ 0.5 -out benchmarks-n3lo-smallR/H125-LHC13-R04-mb-0-mt-1725-xmur100-xmuf200-xQ050-NNLO+NNLLb.R0-1.0.res -scheme b -order 2 -ptmax 500.01 -small-r -fixed_order 2 -loop-mass t -R0 1.0
# process = H    
# collider = pp   
# rts =  13000.000
# M   =    125.000
# muR =    125.000
# muF =    250.000
# Q   =     62.500
# p   =      5.000
# include_c1_squared =   F
# loop_mass  = t   
# alphas(MZ) =    0.11800
# alphas(M) =    0.11264
# alphas(muR) =    0.11264
# Rjet =      0.400
# order = NNLL
# pdf name and set = PDF4LHC15_nnlo_mc.LHgrid,    0
# matching scheme = b
# total cross sections [nb] at LO, NLOdiff, NNLOdiff, N3LOdiff =    14.361420  -14.329396    0.009991    0.003297
#----------------------------------------------------------------------
# the lines that follow give the jet-veto efficiencies as a function of pt
#         pt            matched eff      resummed eff     fixed-order eff
   2.00000000E+001   9.03059396E+000   5.38702119E+002   3.67653180E-001
   2.50000000E+001  -5.32519943E+000   6.20166970E+002   4.73746136E-001
   3.00000000E+001  -1.21310069E+001   6.77287090E+002   5.54562484E-001
   3.50000000E+001  -1.43371415E+001   7.16825840E+002   6.18356864E-001
   4.00000000E+001  -1.39493303E+001   7.43646866E+002   6.69850745E-001
   4.50000000E+001  -1.22633432E+001   7.61328948E+002   7.12277053E-001
   5.00000000E+001  -1.00922278E+001   7.72583401E+002   7.47523310E-001
   5.50000000E+001  -7.91594624E+000   7.79480514E+002   7.77286643E-001
   6.00000000E+001  -5.98265225E+000   7.83559923E+002   8.02451070E-001
   6.50000000E+001  -4.38485652E+000   7.85905057E+002   8.24129831E-001
   7.00000000E+001  -3.12353277E+000   7.87228764E+002   8.42905320E-001
   7.50000000E+001  -2.15552640E+000   7.87970448E+002   8.59148721E-001
   8.00000000E+001  -1.42387088E+000   7.88387081E+002   8.73436011E-001
   8.50000000E+001  -8.74568892E-001   7.88623592E+002   8.85881891E-001
   9.00000000E+001  -4.62150096E-001   7.88760060E+002   8.96913530E-001
   9.50000000E+001  -1.51400208E-001   7.88840386E+002   9.06615329E-001
   1.00000000E+002   8.42453701E-002   7.88888735E+002   9.15171171E-001
   1.05000000E+002   2.64484298E-001   7.88918554E+002   9.22860176E-001
   1.10000000E+002   4.03530591E-001   7.88937401E+002   9.29732765E-001
   1.15000000E+002   5.11765684E-001   7.88949608E+002   9.35863966E-001
   1.20000000E+002   5.96824151E-001   7.88957706E+002   9.41374397E-001
   1.25000000E+002   6.64250476E-001   7.88963205E+002   9.46305442E-001
   1.30000000E+002   7.18190714E-001   7.88967023E+002   9.50747825E-001
   1.35000000E+002   7.61764047E-001   7.88969731E+002   9.54810905E-001
   1.40000000E+002   7.97182711E-001   7.88971691E+002   9.58456009E-001
   1.45000000E+002   8.26224262E-001   7.88973136E+002   9.61764105E-001
   1.50000000E+002   8.50212717E-001   7.88974220E+002   9.64770391E-001
   1.55000000E+002   8.70159266E-001   7.88975046E+002   9.67499413E-001
   1.60000000E+002   8.86895603E-001   7.88975686E+002   9.70021846E-001
   1.65000000E+002   9.01001572E-001   7.88976187E+002   9.72326246E-001
   1.70000000E+002   9.12943407E-001   7.88976586E+002   9.74416209E-001
   1.75000000E+002   9.23088324E-001   7.88976905E+002   9.76294511E-001
   1.80000000E+002   9.31805713E-001   7.88977165E+002   9.78041600E-001
   1.85000000E+002   9.39315364E-001   7.88977378E+002   9.79646768E-001
   1.90000000E+002   9.45803765E-001   7.88977553E+002   9.81111529E-001
   1.95000000E+002   9.51443324E-001   7.88977699E+002   9.82459016E-001
   2.00000000E+002   9.56350701E-001   7.88977822E+002   9.83684768E-001
   2.05000000E+002   9.60660828E-001   7.88977926E+002   9.84824931E-001
   2.10000000E+002   9.64457635E-001   7.88978014E+002   9.85882475E-001
   2.15000000E+002   9.67813987E-001   7.88978089E+002   9.86863589E-001
   2.20000000E+002   9.70770032E-001   7.88978153E+002   9.87753273E-001
   2.25000000E+002   9.73399058E-001   7.88978209E+002   9.88578998E-001
   2.30000000E+002   9.75744987E-001   7.88978257E+002   9.89346461E-001
   2.35000000E+002   9.77849063E-001   7.88978299E+002   9.90064898E-001
   2.40000000E+002   9.79706664E-001   7.88978335E+002   9.90702775E-001
   2.45000000E+002   9.81397704E-001   7.88978367E+002   9.91317297E-001
