# ./jetvheto -in n3lo-fixed-order/H125-LHC13-R04-heft-xmur050-xmuf050-log.fxd -xQ 1.00 -out benchmarks-n3lo-smallR/H125-LHC13-R04-heft-xmur050-xmuf050-xQ100-N3LO+NNLLa.R0-1.0.res -scheme a -order 2 -ptmax 500.01 -fixed_order 3 -small-r -R0 1.0
# process = H    
# collider = pp   
# rts =  13000.000
# M   =    125.000
# muR =     62.500
# muF =     62.500
# Q   =    125.000
# p   =      5.000
# include_c1_squared =   F
# loop_mass  = none
# alphas(MZ) =    0.11800
# alphas(M) =    0.11264
# alphas(muR) =    0.12516
# Rjet =      0.400
# order = NNLL
# pdf name and set = PDF4LHC15_nnlo_mc.LHgrid,    0
# matching scheme = a
# total cross sections [nb] at LO, NLOdiff, NNLOdiff, N3LOdiff =     0.015055    0.019611    0.008998    0.001413
#----------------------------------------------------------------------
# the lines that follow give the jet-veto efficiencies as a function of pt
#         pt            matched eff      resummed eff     fixed-order eff
   2.00000000E+001   4.98360594E-001   6.12760785E-001   4.50065620E-001
   2.50000000E+001   5.80990189E-001   6.93006553E-001   5.35117843E-001
   3.00000000E+001   6.50538476E-001   7.47929266E-001   6.07875407E-001
   3.50000000E+001   7.05112200E-001   7.85105400E-001   6.65471707E-001
   4.00000000E+001   7.46800556E-001   8.09717847E-001   7.10255567E-001
   4.50000000E+001   7.83104900E-001   8.25271196E-001   7.49462038E-001
   5.00000000E+001   8.11594079E-001   8.34209736E-001   7.80889863E-001
   5.50000000E+001   8.36238960E-001   8.38289532E-001   8.08255100E-001
   6.00000000E+001   8.55957563E-001   8.38788651E-001   8.30655804E-001
   6.50000000E+001   8.74327450E-001   8.36664480E-001   8.51359759E-001
   7.00000000E+001   8.87960403E-001   8.32651235E-001   8.67401068E-001
   7.50000000E+001   9.00110847E-001   8.27314605E-001   8.81721105E-001
   8.00000000E+001   9.11066573E-001   8.21100907E-001   8.94630807E-001
   8.50000000E+001   9.20723265E-001   8.14368707E-001   9.06075690E-001
   9.00000000E+001   9.29203514E-001   8.07406699E-001   9.16194285E-001
   9.50000000E+001   9.35746625E-001   8.00444729E-001   9.24302841E-001
   1.00000000E+002   9.42040025E-001   7.93663887E-001   9.31969203E-001
   1.05000000E+002   9.46904196E-001   7.87200545E-001   9.38114001E-001
   1.10000000E+002   9.51443373E-001   7.81151217E-001   9.43779750E-001
   1.15000000E+002   9.55785360E-001   7.75577841E-001   9.49102964E-001
   1.20000000E+002   9.59722362E-001   7.70511256E-001   9.53905269E-001
   1.25000000E+002   9.62911091E-001   7.65957802E-001   9.57868349E-001
   1.30000000E+002   9.65698887E-001   7.61904982E-001   9.61333266E-001
   1.35000000E+002   9.68587417E-001   7.58326623E-001   9.64797911E-001
   1.40000000E+002   9.71224233E-001   7.55187674E-001   9.67934219E-001
   1.45000000E+002   9.73478798E-001   7.52448227E-001   9.70623723E-001
   1.50000000E+002   9.75198265E-001   7.50066671E-001   9.72725389E-001
   1.55000000E+002   9.77282323E-001   7.48001976E-001   9.75127782E-001
   1.60000000E+002   9.79182830E-001   7.46215239E-001   9.77303274E-001
   1.65000000E+002   9.80269232E-001   7.44670550E-001   9.78635491E-001
   1.70000000E+002   9.81797327E-001   7.43335556E-001   9.80367872E-001
   1.75000000E+002   9.83244114E-001   7.42181540E-001   9.81990419E-001
   1.80000000E+002   9.84340368E-001   7.41183268E-001   9.83240537E-001
   1.85000000E+002   9.85351290E-001   7.40318790E-001   9.84384183E-001
   1.90000000E+002   9.86417817E-001   7.39569149E-001   9.85564426E-001
   1.95000000E+002   9.87407325E-001   7.38918049E-001   9.86652461E-001
   2.00000000E+002   9.88292739E-001   7.38351531E-001   9.87623667E-001
   2.05000000E+002   9.89005411E-001   7.37857666E-001   9.88411596E-001
   2.10000000E+002   9.89739208E-001   7.37426274E-001   9.89210583E-001
   2.15000000E+002   9.90304386E-001   7.37048674E-001   9.89833220E-001
   2.20000000E+002   9.91130698E-001   7.36717461E-001   9.90708699E-001
   2.25000000E+002   9.91565605E-001   7.36426319E-001   9.91187907E-001
   2.30000000E+002   9.92107664E-001   7.36169855E-001   9.91768546E-001
   2.35000000E+002   9.92518122E-001   7.35943460E-001   9.92213208E-001
   2.40000000E+002   9.92965399E-001   7.35743187E-001   9.92690544E-001
   2.45000000E+002   9.93491262E-001   7.35565656E-001   9.93242783E-001
