# ./jetvheto -in n3lo-fixed-order/H125-LHC13-R04-mb-0-mt-1725-xmur100-xmuf050-log.fxd -xQ 0.5 -out benchmarks-n3lo-smallR/H125-LHC13-R04-mb-0-mt-1725-xmur100-xmuf050-xQ050-NNLO+NNLLa.R0-0.5.res -scheme a -order 2 -ptmax 500.01 -small-r -fixed_order 2 -loop-mass t -R0 0.5
# process = H    
# collider = pp   
# rts =  13000.000
# M   =    125.000
# muR =    125.000
# muF =     62.500
# Q   =     62.500
# p   =      5.000
# include_c1_squared =   F
# loop_mass  = t   
# alphas(MZ) =    0.11800
# alphas(M) =    0.11264
# alphas(muR) =    0.11264
# Rjet =      0.400
# order = NNLL
# pdf name and set = PDF4LHC15_nnlo_mc.LHgrid,    0
# matching scheme = a
# total cross sections [nb] at LO, NLOdiff, NNLOdiff, N3LOdiff =     0.012997    0.017347    0.010424    0.004163
#----------------------------------------------------------------------
# the lines that follow give the jet-veto efficiencies as a function of pt
#         pt            matched eff      resummed eff     fixed-order eff
   2.00000000E+001   4.73529174E-001   5.05160942E-001   5.05383673E-001
   2.50000000E+001   5.64536774E-001   5.90826688E-001   5.86599989E-001
   3.00000000E+001   6.35626111E-001   6.52373188E-001   6.49001744E-001
   3.50000000E+001   6.91740064E-001   6.96049941E-001   6.98540679E-001
   4.00000000E+001   7.36330260E-001   7.26525276E-001   7.38658449E-001
   4.50000000E+001   7.72107083E-001   7.47298512E-001   7.71720875E-001
   5.00000000E+001   8.01402952E-001   7.61076387E-001   7.99609682E-001
   5.50000000E+001   8.25190818E-001   7.69970864E-001   8.22862779E-001
   6.00000000E+001   8.45196546E-001   7.75590020E-001   8.42840818E-001
   6.50000000E+001   8.62213146E-001   7.79095207E-001   8.60082325E-001
   7.00000000E+001   8.76823957E-001   7.81278666E-001   8.75010333E-001
   7.50000000E+001   8.89440353E-001   7.82651543E-001   8.87947964E-001
   8.00000000E+001   9.00528843E-001   7.83530028E-001   8.99323286E-001
   8.50000000E+001   9.10330151E-001   7.84104871E-001   9.09364851E-001
   9.00000000E+001   9.18995523E-001   7.84490478E-001   9.18224745E-001
   9.50000000E+001   9.26632866E-001   7.84755650E-001   9.26016654E-001
   1.00000000E+002   9.33524929E-001   7.84942340E-001   9.33030521E-001
   1.05000000E+002   9.39585131E-001   7.85076647E-001   9.39186536E-001
   1.10000000E+002   9.45022206E-001   7.85175170E-001   9.44699045E-001
   1.15000000E+002   9.49926063E-001   7.85248715E-001   9.49662445E-001
   1.20000000E+002   9.54354882E-001   7.85304475E-001   9.54138501E-001
   1.25000000E+002   9.58391510E-001   7.85347341E-001   9.58212797E-001
   1.30000000E+002   9.61973543E-001   7.85380708E-001   9.61825060E-001
   1.35000000E+002   9.65210974E-001   7.85406972E-001   9.65086900E-001
   1.40000000E+002   9.68177146E-001   7.85427855E-001   9.68072879E-001
   1.45000000E+002   9.70887990E-001   7.85444614E-001   9.70799893E-001
   1.50000000E+002   9.73371804E-001   7.85458176E-001   9.73296991E-001
   1.55000000E+002   9.75611699E-001   7.85469236E-001   9.75547861E-001
   1.60000000E+002   9.77653740E-001   7.85478320E-001   9.77599016E-001
   1.65000000E+002   9.79506893E-001   7.85485831E-001   9.79459776E-001
   1.70000000E+002   9.81212421E-001   7.85492078E-001   9.81171685E-001
   1.75000000E+002   9.82759651E-001   7.85497305E-001   9.82724296E-001
   1.80000000E+002   9.84164294E-001   7.85501701E-001   9.84133490E-001
   1.85000000E+002   9.85467403E-001   7.85505417E-001   9.85440470E-001
   1.90000000E+002   9.86659408E-001   7.85508573E-001   9.86635778E-001
   1.95000000E+002   9.87752926E-001   7.85511265E-001   9.87732128E-001
   2.00000000E+002   9.88756559E-001   7.85513571E-001   9.88738196E-001
   2.05000000E+002   9.89675792E-001   7.85515555E-001   9.89659531E-001
   2.10000000E+002   9.90505740E-001   7.85517267E-001   9.90491300E-001
   2.15000000E+002   9.91289040E-001   7.85518751E-001   9.91276183E-001
   2.20000000E+002   9.92006310E-001   7.85520040E-001   9.91994832E-001
   2.25000000E+002   9.92651887E-001   7.85521165E-001   9.92641615E-001
   2.30000000E+002   9.93276292E-001   7.85522149E-001   9.93267078E-001
   2.35000000E+002   9.93821354E-001   7.85523012E-001   9.93813070E-001
   2.40000000E+002   9.94337274E-001   7.85523772E-001   9.94329809E-001
   2.45000000E+002   9.94809530E-001   7.85524442E-001   9.94802790E-001
