# ./jetvheto -in n3lo-fixed-order/H125-LHC13-R04-mb-475-mt-1725-xmur050-xmuf050-log.fxd -xQ 1.0 -out benchmarks-n3lo-smallR/H125-LHC13-R04-mb-475-mt-1725-xmur050-xmuf050-xQ100-NNLO+NNLLb.R0-2.0.res -scheme b -order 2 -ptmax 500.01 -fixed_order 2 -small-r -loop-mass t+b -R0 2.0
# process = H    
# collider = pp   
# rts =  13000.000
# M   =    125.000
# muR =     62.500
# muF =     62.500
# Q   =    125.000
# p   =      5.000
# include_c1_squared =   F
# loop_mass  = t+b 
# alphas(MZ) =    0.11800
# alphas(M) =    0.11264
# alphas(muR) =    0.12516
# Rjet =      0.400
# order = NNLL
# pdf name and set = PDF4LHC15_nnlo_mc.LHgrid,    0
# matching scheme = b
# total cross sections [nb] at LO, NLOdiff, NNLOdiff, N3LOdiff =     0.014147    0.020254    0.008998    0.001413
#----------------------------------------------------------------------
# the lines that follow give the jet-veto efficiencies as a function of pt
#         pt            matched eff      resummed eff     fixed-order eff
   2.00000000E+001   5.06404435E-001   6.40518444E-001   3.08135668E-001
   2.50000000E+001   5.79347310E-001   7.05514084E-001   4.16958718E-001
   3.00000000E+001   6.38621826E-001   7.49187054E-001   5.02459671E-001
   3.50000000E+001   6.87348486E-001   7.78010232E-001   5.71196452E-001
   4.00000000E+001   7.27642594E-001   7.96367449E-001   6.27360842E-001
   4.50000000E+001   7.61665343E-001   8.07201891E-001   6.74295094E-001
   5.00000000E+001   7.90380360E-001   8.12562748E-001   7.13816378E-001
   5.50000000E+001   8.14645169E-001   8.13923961E-001   7.47307378E-001
   6.00000000E+001   8.35368985E-001   8.12358999E-001   7.76012324E-001
   6.50000000E+001   8.53125534E-001   8.08674108E-001   8.00751743E-001
   7.00000000E+001   8.68579549E-001   8.03489822E-001   8.22342000E-001
   7.50000000E+001   8.81806453E-001   7.97285173E-001   8.41024239E-001
   8.00000000E+001   8.93421557E-001   7.90439314E-001   8.57481768E-001
   8.50000000E+001   9.03656401E-001   7.83257967E-001   8.72028209E-001
   9.00000000E+001   9.12567361E-001   7.75987810E-001   8.84788465E-001
   9.50000000E+001   9.20372013E-001   7.68825101E-001   8.96030076E-001
   1.00000000E+002   9.27380207E-001   7.61923971E-001   9.06088095E-001
   1.05000000E+002   9.33607347E-001   7.55399275E-001   9.15022873E-001
   1.10000000E+002   9.39160848E-001   7.49330522E-001   9.22967578E-001
   1.15000000E+002   9.44214294E-001   7.43766389E-001   9.30123525E-001
   1.20000000E+002   9.48773215E-001   7.38727634E-001   9.36525194E-001
   1.25000000E+002   9.52982569E-001   7.34213097E-001   9.42341979E-001
   1.30000000E+002   9.56751732E-001   7.30204861E-001   9.47512677E-001
   1.35000000E+002   9.60216816E-001   7.26672976E-001   9.52192707E-001
   1.40000000E+002   9.63426231E-001   7.23579879E-001   9.56453519E-001
   1.45000000E+002   9.66354920E-001   7.20884089E-001   9.60291255E-001
   1.50000000E+002   9.69085984E-001   7.18543094E-001   9.63805964E-001
   1.55000000E+002   9.71590770E-001   7.16515439E-001   9.66986816E-001
   1.60000000E+002   9.73893413E-001   7.14762104E-001   9.69872376E-001
   1.65000000E+002   9.75997955E-001   7.13247271E-001   9.72479918E-001
   1.70000000E+002   9.77941084E-001   7.11938789E-001   9.74856924E-001
   1.75000000E+002   9.79767839E-001   7.10808208E-001   9.77058190E-001
   1.80000000E+002   9.81411433E-001   7.09830586E-001   9.79026110E-001
   1.85000000E+002   9.82959616E-001   7.08984270E-001   9.80855018E-001
   1.90000000E+002   9.84382127E-001   7.08250584E-001   9.82521082E-001
   1.95000000E+002   9.85687010E-001   7.07613495E-001   9.84037765E-001
   2.00000000E+002   9.86885486E-001   7.07059283E-001   9.85420716E-001
   2.05000000E+002   9.88001065E-001   7.06576232E-001   9.86697220E-001
   2.10000000E+002   9.88999808E-001   7.06154351E-001   9.87836822E-001
   2.15000000E+002   9.89959232E-001   7.05785125E-001   9.88919546E-001
   2.20000000E+002   9.90844472E-001   7.05461295E-001   9.89913075E-001
   2.25000000E+002   9.91622625E-001   7.05176673E-001   9.90786656E-001
   2.30000000E+002   9.92392346E-001   7.04925974E-001   9.91640359E-001
   2.35000000E+002   9.93062397E-001   7.04704685E-001   9.92384747E-001
   2.40000000E+002   9.93694414E-001   7.04508944E-001   9.93082569E-001
   2.45000000E+002   9.94265317E-001   7.04335439E-001   9.93711871E-001
