# ./jetvheto -in n3lo-fixed-order/H125-LHC13-R04-mb-0-mt-1725-xmur050-xmuf050-log.fxd -xQ 1.0 -out benchmarks-n3lo-smallR/H125-LHC13-R04-mb-0-mt-1725-xmur050-xmuf050-xQ100-N3LO+NNLLb.res -scheme b -order 2 -ptmax 500.01 -fixed_order 3 -loop-mass t
# process = H    
# collider = pp   
# rts =  13000.000
# M   =    125.000
# muR =     62.500
# muF =     62.500
# Q   =    125.000
# p   =      5.000
# include_c1_squared =   F
# loop_mass  = t   
# alphas(MZ) =    0.11800
# alphas(M) =    0.11264
# alphas(muR) =    0.12516
# Rjet =      0.400
# order = NNLL
# pdf name and set = PDF4LHC15_nnlo_mc.LHgrid,    0
# matching scheme = b
# total cross sections [nb] at LO, NLOdiff, NNLOdiff, N3LOdiff =     0.015885    0.020561    0.008998    0.001413
#----------------------------------------------------------------------
# the lines that follow give the jet-veto efficiencies as a function of pt
#         pt            matched eff      resummed eff     fixed-order eff
   2.00000000E+001   4.82686511E-001   5.95466324E-001   4.41643521E-001
   2.50000000E+001   5.67463159E-001   6.80488616E-001   5.29528045E-001
   3.00000000E+001   6.38435427E-001   7.39178161E-001   6.04131024E-001
   3.50000000E+001   6.94535675E-001   7.79289588E-001   6.63337130E-001
   4.00000000E+001   7.37547693E-001   8.06190703E-001   7.09302441E-001
   4.50000000E+001   7.74967118E-001   8.23536914E-001   7.49371437E-001
   5.00000000E+001   8.04736288E-001   8.33887441E-001   7.81702411E-001
   5.50000000E+001   8.30206232E-001   8.39084558E-001   8.09465789E-001
   6.00000000E+001   8.50920422E-001   8.40471084E-001   8.32379427E-001
   6.50000000E+001   8.70208241E-001   8.39053410E-001   8.53504482E-001
   7.00000000E+001   8.84666224E-001   8.35603257E-001   8.69854849E-001
   7.50000000E+001   8.97592453E-001   8.30715335E-001   8.84440584E-001
   8.00000000E+001   9.09277265E-001   8.24858702E-001   8.97583035E-001
   8.50000000E+001   9.19616453E-001   8.18409962E-001   9.09233323E-001
   9.00000000E+001   9.28699971E-001   8.11672269E-001   9.19502663E-001
   9.50000000E+001   9.35785849E-001   8.04887156E-001   9.27728280E-001
   1.00000000E+002   9.42640632E-001   7.98245218E-001   9.35563225E-001
   1.05000000E+002   9.47945553E-001   7.91890570E-001   9.41788367E-001
   1.10000000E+002   9.52859573E-001   7.85926025E-001   9.47503067E-001
   1.15000000E+002   9.57570227E-001   7.80418625E-001   9.52903001E-001
   1.20000000E+002   9.61827921E-001   7.75403308E-001   9.57766396E-001
   1.25000000E+002   9.65338368E-001   7.70889684E-001   9.61821780E-001
   1.30000000E+002   9.68361464E-001   7.66867839E-001   9.65320871E-001
   1.35000000E+002   9.71429496E-001   7.63313624E-001   9.68789919E-001
   1.40000000E+002   9.74243446E-001   7.60193559E-001   9.71951352E-001
   1.45000000E+002   9.76691620E-001   7.57468948E-001   9.74702884E-001
   1.50000000E+002   9.78574663E-001   7.55099109E-001   9.76854447E-001
   1.55000000E+002   9.80789231E-001   7.53043724E-001   9.79289601E-001
   1.60000000E+002   9.82779492E-001   7.51264431E-001   9.81470679E-001
   1.65000000E+002   9.83952531E-001   7.49725735E-001   9.82816919E-001
   1.70000000E+002   9.85541161E-001   7.48395598E-001   9.84547446E-001
   1.75000000E+002   9.87014237E-001   7.47245547E-001   9.86142527E-001
   1.80000000E+002   9.88129895E-001   7.46250531E-001   9.87365627E-001
   1.85000000E+002   9.89161218E-001   7.45388748E-001   9.88489569E-001
   1.90000000E+002   9.90232426E-001   7.44641350E-001   9.89639801E-001
   1.95000000E+002   9.91225901E-001   7.43992128E-001   9.90701722E-001
   2.00000000E+002   9.92105059E-001   7.43427192E-001   9.91640532E-001
   2.05000000E+002   9.92793311E-001   7.42934666E-001   9.92381271E-001
   2.10000000E+002   9.93491067E-001   7.42504415E-001   9.93124356E-001
   2.15000000E+002   9.94028795E-001   7.42127790E-001   9.93702166E-001
   2.20000000E+002   9.94816643E-001   7.41797416E-001   9.94523970E-001
   2.25000000E+002   9.95212969E-001   7.41506999E-001   9.94951215E-001
   2.30000000E+002   9.95711668E-001   7.41251163E-001   9.95476723E-001
   2.35000000E+002   9.96070652E-001   7.41025314E-001   9.95859519E-001
   2.40000000E+002   9.96467012E-001   7.40825518E-001   9.96276754E-001
   2.45000000E+002   9.96936497E-001   7.40648405E-001   9.96764480E-001
